-21846
1005
1105
1420
1724
1796
1615
1332
1104
974
872
694
416
155
106
373
889
1500
2124
2827
3705
4724
5713
6476
6880
6889
6569
6049
5457
4846
4186
3454
2722
2129
1755
1567
1456
1321
1118
848
536
240
6
-173
-338
-496
-599
-598
-520
-450
-449
-486
-488
-445
-419
-462
-543
-576
-513
-402
-339
-374
-467
-536
-542
-519
-537
-617
-706
-724
-654
-573
-578
-693
-833
-899
-883
-862
-894
-952
-980
-975
-990
-1046
-1094
-1069
-998
-980
-1083
-1260
-1391
-1425
-1423
-1480
-1613
-1748
-1800
-1759
-1701
-1692
-1727
-1746
-1698
-1629
-1653
-1823
-2042
-2142
-2063
-1943
-1963
-2126
-2233
-2111
-1846
-1701
-1811
-2024
-2092
-1961
-1799
-1762
-1810
-1794
-1664
-1523
-1463
-1441
-1348
-1173
-1026
-998
-1045
-1027
-877
-656
-481
-402
-367
-291
-133
64
223
288
278
275
352
501
650
746
798
864
968
1063
1091
1061
1043
1081
1113
1050
897
771
772
862
892
778
588
477
514
632
714
718
684
669
695
758
851
943
1001
1003
975
968
1009
1089
1173
1242
1281
1269
1211
1157
1183
1299
1410
1398
1249
1091
1048
1120
1201
1188
1076
941
860
857
890
890
818
678
532
427
339
211
54
-20
119
492
1001
1552
2175
2984
4022
5141
6056
6545
6603
6402
6116
5763
5246
4527
3715
2981
2411
1980
1648
1415
1278
1161
973
716
482
334
228
81
-102
-227
-243
-201
-196
-252
-299
-269
-191
-175
-283
-458
-552
-474
-300
-197
-255
-388
-442
-381
-306
-319
-407
-494
-543
-564
-559
-517
-449
-434
-518
-651
-731
-714
-661
-673
-790
-961
-1102
-1135
-1030
-862
-771
-811
-885
-847
-710
-664
-832
-1105
-1256
-1210
-1115
-1125
-1201
-1188
-1044
-901
-898
-1037
-1223
-1410
-1616
-1828
-1978
-2031
-2021
-1998
-1951
-1843
-1698
-1585
-1532
-1496
-1425
-1333
-1283
-1281
-1256
-1130
-925
-709
-503
-268
-4
202
269
244
268
408
566
596
508
501
733
1109
1374
1403
1336
1391
1573
1666
1526
1291
1223
1387
1551
1468
1186
994
1108
1436
1675
1639
1396
1167
1110
1200
1291
1256
1096
916
842
907
1034
1128
1143
1090
999
891
799
751
740
713
643
579
585
655
714
740
808
983
1183
1253
1158
1045
1096
1285
1391
1260
987
801
832
978
1036
908
697
602
701
859
866
686
496
470
544
471
147
-201
-218
188
748
1166
1448
1864
2611
3589
4521
5196
5571
5689
5601
5364
5047
4673
4208
3635
3021
2465
2035
1734
1552
1481
1433
1249
840
328
-37
-138
-104
-121
-212
-235
-110
58
93
-36
-216
-364
-520
-762
-1053
-1263
-1308
-1230
-1119
-1032
-985
-992
-1042
-1080
-1062
-1008
-992
-1049
-1125
-1140
-1086
-1029
-1034
-1108
-1197
-1254
-1280
-1301
-1335
-1372
-1392
-1388
-1359
-1293
-1182
-1090
-1175
-1517
-1966
-2212
-2098
-1836
-1810
-2139
-2514
-2555
-2250
-1962
-1995
-2254
-2411
-2315
-2168
-2214
-2431
-2599
-2606
-2572
-2642
-2760
-2741
-2534
-2288
-2126
-1999
-1795
-1553
-1469
-1628
-1848
-1893
-1765
-1702
-1860
-2094
-2097
-1759
-1257
-832
-575
-462
-494
-683
-909
-947
-703
-397
-326
-488
-537
-204
382
845
989
928
802
549
124
-200
-13
688
1341
1402
999
815
1286
2058
2395
2008
1297
840
797
893
875
784
785
897
988
969
882
852
942
1077
1151
1133
1093
1137
1282
1419
1436
1379
1388
1521
1653
1639
1510
1421
1419
1398
1275
1143
1148
1249
1241
1042
835
870
1141
1400
1492
1521
1636
1766
1717
1485
1283
1260
1222
865
231
-242
-178
356
970
1423
1845
2511
3474
4542
5486
6183
6566
6577
6253
5752
5242
4756
4212
3578
2953
2477
2201
2058
1932
1736
1454
1151
923
814
712
457
63
-244
-278
-140
-116
-331
-597
-620
-368
-83
9
-87
-215
-261
-235
-192
-171
-221
-384
-645
-885
-981
-928
-824
-748
-694
-609
-495
-409
-384
-399
-428
-472
-520
-573
-625
-676
-720
-717
-627
-475
-334
-245
-173
-101
-97
-245
-495
-659
-608
-458
-450
-669
-916
-933
-706
-478
-489
-746
-1076
-1341
-1531
-1677
-1770
-1804
-1835
-1933
-2041
-2006
-1752
-1432
-1269
-1329
-1481
-1557
-1532
-1491
-1479
-1441
-1334
-1200
-1122
-1112
-1113
-1083
-1024
-946
-847
-737
-648
-582
-482
-290
-35
186
311
379
476
623
755
815
814
805
835
908
1013
1124
1198
1209
1171
1140
1146
1150
1096
989
907
929
1041
1147
1159
1086
1029
1067
1177
1248
1188
1025
886
880
985
1080
1067
966
900
959
1117
1272
1346
1349
1338
1348
1368
1386
1407
1450
1479
1441
1321
1194
1140
1168
1219
1226
1195
1168
1160
1177
1237
1333
1370
1237
956
717
655
664
507
153
-102
80
683
1357
1856
2312
3052
4168
5392
6365
6938
7178
7179
6967
6552
5991
5336
4623
3888
3242
2781
2488
2260
2004
1716
1439
1174
872
511
150
-130
-286
-345
-368
-388
-392
-348
-258
-182
-187
-290
-437
-528
-527
-493
-492
-507
-449
-293
-152
-163
-298
-362
-223
-13
10
-255
-596
-718
-600
-524
-732
-1127
-1371
-1277
-1014
-895
-994
-1089
-962
-685
-542
-685
-957
-1088
-1021
-949
-1060
-1323
-1560
-1658
-1663
-1682
-1737
-1787
-1814
-1864
-1967
-2076
-2118
-2083
-2060
-2167
-2401
-2606
-2612
-2404
-2150
-2051
-2125
-2216
-2197
-2135
-2160
-2267
-2327
-2270
-2181
-2143
-2094
-1929
-1690
-1556
-1590
-1639
-1530
-1335
-1295
-1497
-1729
-1740
-1523
-1284
-1146
-1021
-801
-536
-361
-282
-165
49
221
182
-17
-145
-37
205
346
295
199
239
427
629
735
789
878
1004
1076
1020
895
832
914
1089
1224
1223
1109
1009
1010
1093
1161
1126
1004
879
826
856
902
898
837
782
832
997
1166
1197
1070
935
944
1085
1195
1180
1108
1099
1170
1232
1222
1189
1255
1458
1649
1624
1315
922
721
742
662
190
-492
-824
-473
231
683
791
1089
2047
3421
4536
5117
5491
5985
6415
6349
5754
5073
4641
4306
3762
3036
2461
2226
2138
1916
1550
1220
987
716
362
61
-32
-19
-130
-439
-734
-776
-601
-474
-564
-758
-846
-808
-802
-901
-982
-897
-700
-572
-585
-640
-642
-653
-768
-883
-808
-569
-451
-644
-953
-1016
-748
-475
-526
-849
-1099
-1089
-945
-878
-897
-885
-819
-836
-1002
-1180
-1184
-1027
-909
-966
-1126
-1215
-1188
-1141
-1147
-1167
-1155
-1161
-1272
-1472
-1624
-1644
-1599
-1594
-1642
-1674
-1660
-1637
-1622
-1568
-1441
-1313
-1302
-1432
-1595
-1671
-1642
-1564
-1476
-1384
-1300
-1264
-1271
-1249
-1127
-947
-831
-826
-849
-762
-534
-264
-81
-13
25
118
272
403
461
474
506
593
698
777
835
918
1034
1136
1193
1234
1303
1389
1442
1447
1468
1557
1680
1742
1712
1660
1657
1672
1621
1505
1442
1515
1638
1651
1519
1402
1487
1751
1982
2009
1897
1863
2027
2299
2487
2505
2431
2390
2426
2497
2547
2549
2485
2349
2172
2027
1958
1920
1836
1705
1607
1613
1689
1732
1682
1553
1391
1198
951
656
332
-31
-421
-733
-754
-342
395
1136
1660
2094
2760
3819
5023
5893
6127
5832
5387
5098
4987
4839
4442
3772
3014
2424
2125
2016
1879
1582
1166
749
392
89
-127
-203
-163
-117
-161
-241
-211
-39
137
158
23
-165
-325
-459
-589
-731
-955
-1339
-1790
-2036
-1880
-1465
-1193
-1290
-1522
-1439
-850
-43
483
462
59
-320
-373
-110
202
310
202
85
140
317
362
130
-242
-525
-682
-905
-1315
-1746
-1882
-1611
-1186
-968
-1059
-1247
-1285
-1176
-1117
-1249
-1515
-1750
-1882
-1971
-2078
-2189
-2258
-2293
-2358
-2475
-2581
-2611
-2583
-2561
-2569
-2550
-2432
-2229
-2055
-2017
-2105
-2181
-2107
-1918
-1828
-1983
-2254
-2345
-2134
-1821
-1696
-1775
-1802
-1617
-1404
-1448
-1723
-1862
-1579
-1010
-554
-410
-374
-125
403
965
1241
1093
652
197
-54
-77
-33
-96
-246
-285
-80
265
487
450
262
112
38
-72
-285
-508
-601
-528
-383
-256
-132
39
213
268
150
-18
-50
113
332
411
312
181
190
382
649
838
861
751
621
583
653
753
779
729
680
700
768
848
941
1042
1060
887
549
229
47
-119
-476
-995
-1338
-1199
-634
0
465
902
1627
2725
3915
4831
5342
5560
5610
5473
5101
4589
4117
3716
3189
2380
1449
814
714
916
938
556
25
-239
-123
118
168
-45
-360
-598
-693
-665
-578
-522
-568
-699
-822
-870
-887
-962
-1097
-1192
-1186
-1146
-1181
-1302
-1390
-1325
-1139
-1009
-1074
-1295
-1485
-1490
-1372
-1323
-1443
-1609
-1611
-1418
-1234
-1269
-1502
-1715
-1756
-1691
-1681
-1749
-1791
-1744
-1672
-1658
-1690
-1721
-1760
-1852
-1995
-2128
-2221
-2322
-2429
-2419
-2204
-1928
-1912
-2290
-2813
-3066
-2941
-2763
-2918
-3382
-3725
-3572
-3013
-2506
-2391
-2582
-2722
-2610
-2412
-2419
-2683
-2947
-2944
-2688
-2414
-2302
-2300
-2240
-2049
-1809
-1639
-1573
-1578
-1621
-1646
-1568
-1352
-1087
-926
-934
-1014
-1004
-863
-693
-605
-589
-539
-382
-171
-10
55
71
98
139
145
92
-2
-85
-116
-100
-53
2
65
140
224
292
324
336
374
466
577
635
613
568
579
637
656
594
516
519
609
695
711
702
765
917
1063
1115
1101
1137
1271
1394
1337
1057
704
491
499
609
668
663
688
779
883
945
962
892
623
131
-381
-575
-313
179
583
866
1278
2012
2975
3915
4685
5276
5615
5561
5133
4607
4279
4141
3901
3353
2628
2055
1804
1718
1549
1227
884
649
520
381
169
-45
-162
-189
-239
-361
-422
-243
88
204
-131
-664
-868
-557
-156
-229
-790
-1219
-988
-277
217
76
-420
-710
-593
-307
-110
-4
104
194
195
137
101
63
-46
-169
-101
157
208
-314
-1183
-1664
-1307
-511
-129
-506
-1124
-1231
-694
-76
69
-237
-570
-672
-684
-832
-1080
-1221
-1199
-1196
-1388
-1699
-1884
-1820
-1646
-1621
-1859
-2214
-2439
-2437
-2335
-2297
-2316
-2232
-1972
-1693
-1662
-1951
-2318
-2425
-2184
-1858
-1757
-1912
-2057
-1937
-1579
-1252
-1173
-1320
-1476
-1461
-1274
-1055
-934
-932
-972
-941
-789
-552
-315
-156
-103
-113
-108
-51
23
67
84
114
165
196
184
182
248
335
333
233
140
146
204
207
134
53
9
-19
-20
79
273
381
234
-74
-212
3
372
534
398
238
340
689
1016
1122
1042
918
822
743
678
656
694
764
832
886
957
1085
1256
1428
1536
1521
1369
1112
827
599
463
328
35
-452
-924
-1080
-813
-314
169
612
1207
2053
2975
3699
4136
4413
4653
4810
4775
4554
4266
3853
3614
3265
2791
2222
1619
1061
603
228
-112
-421
-663
-805
-844
-790
-662
-523
-488
-630
-856
-970
-905
-787
-755
-767
-689
-542
-529
-754
-1024
-1082
-1008
-1185
-1785
-2417
-2505
-1970
-1369
-1248
-1510
-1577
-1132
-517
-312
-658
-1160
-1407
-1418
-1509
-1800
-2073
-2067
-1820
-1596
-1528
-1490
-1335
-1154
-1162
-1410
-1700
-1849
-1901
-2021
-2197
-2236
-2037
-1774
-1682
-1770
-1859
-1907
-2102
-2598
-3214
-3569
-3477
-3150
-2936
-2938
-2966
-2800
-2428
-2049
-1893
-2025
-2337
-2626
-2733
-2635
-2416
-2182
-1989
-1841
-1724
-1587
-1367
-1079
-849
-827
-1009
-1189
-1151
-883
-572
-420
-459
-572
-619
-546
-399
-269
-215
-207
-119
156
605
1027
1167
967
623
400
338
236
-57
-377
-392
-57
221
11
-570
-876
-451
408
947
775
275
128
544
1113
1345
1164
856
668
614
606
621
695
828
945
983
926
836
791
865
1062
1264
1335
1236
1067
979
1049
1210
1300
1206
1000
887
978
1108
1025
706
413
386
464
230
-441
-1135
-1296
-804
-19
698
1366
2235
3390
4638
5732
6536
6971
6940
6458
5761
5130
4625
4105
3508
2983
2691
2573
2419
2144
1861
1669
1492
1199
797
427
171
-43
-283
-490
-536
-389
-181
-67
-64
-71
0
108
126
-24
-252
-349
-212
57
249
267
216
243
369
505
587
642
720
807
839
786
679
537
353
145
-39
-165
-254
-357
-480
-589
-668
-723
-746
-714
-638
-601
-679
-860
-1035
-1110
-1106
-1123
-1242
-1432
-1596
-1669
-1662
-1651
-1704
-1818
-1938
-2003
-2010
-1992
-1972
-1955
-1949
-1977
-2053
-2143
-2186
-2142
-2027
-1914
-1857
-1854
-1854
-1818
-1751
-1677
-1602
-1520
-1436
-1375
-1322
-1213
-1018
-805
-688
-669
-593
-333
10
165
-14
-335
-453
-240
79
207
111
32
178
495
770
892
916
919
881
761
621
570
628
690
656
553
508
590
739
847
870
842
809
793
796
835
939
1086
1215
1258
1204
1115
1076
1116
1189
1231
1223
1244
1344
1474
1527
1460
1357
1322
1355
1357
1267
1131
1053
1056
1071
1066
1100
1219
1327
1254
974
654
468
376
171
-228
-607
-649
-237
436
1088
1638
2244
3094
4185
5318
6236
6795
6951
6788
6443
6001
5503
4946
4313
3609
2891
2265
1836
1618
1501
1322
987
560
198
11
-31
-45
-116
-257
-436
-582
-633
-574
-469
-415
-453
-538
-607
-640
-653
-634
-561
-459
-418
-474
-574
-641
-640
-642
-715
-815
-852
-814
-766
-744
-705
-621
-555
-595
-721
-784
-694
-558
-575
-786
-977
-922
-684
-571
-770
-1091
-1180
-956
-719
-823
-1263
-1681
-1789
-1664
-1613
-1791
-2067
-2213
-2158
-2035
-1998
-2092
-2266
-2437
-2530
-2515
-2436
-2378
-2373
-2370
-2287
-2130
-1999
-1972
-2020
-2060
-2067
-2094
-2175
-2252
-2239
-2118
-1953
-1786
-1585
-1313
-1012
-776
-648
-567
-455
-324
-251
-245
-203
-45
172
317
327
306
381
540
645
579
403
288
349
513
603
540
426
424
574
760
839
805
761
787
851
875
843
785
727
657
600
614
724
863
946
968
1011
1130
1267
1308
1225
1140
1189
1343
1430
1327
1130
1071
1255
1509
1561
1345
1083
1038
1185
1260
1103
881
843
1020
1219
1294
1283
1222
1044
699
329
135
75
-105
-488
-764
-546
162
941
1480
1932
2665
3759
4889
5709
6151
6324
6290
6030
5595
5116
4649
4117
3472
2829
2380
2159
2013
1797
1517
1239
964
651
320
71
-39
-75
-129
-217
-280
-248
-134
-15
30
-55
-246
-458
-588
-598
-529
-438
-354
-268
-188
-161
-197
-253
-270
-269
-329
-466
-594
-592
-448
-264
-143
-97
-66
-26
5
7
-12
-56
-155
-326
-514
-627
-639
-617
-636
-693
-711
-674
-654
-739
-914
-1063
-1113
-1108
-1158
-1293
-1423
-1456
-1403
-1356
-1378
-1435
-1459
-1443
-1435
-1452
-1451
-1397
-1332
-1322
-1361
-1374
-1317
-1248
-1246
-1295
-1286
-1157
-970
-817
-723
-631
-490
-328
-210
-139
-61
62
207
340
473
644
851
1023
1090
1079
1103
1234
1405
1460
1321
1097
998
1111
1311
1400
1319
1209
1248
1462
1703
1802
1719
1539
1376
1281
1214
1120
991
862
785
790
865
986
1123
1248
1334
1356
1305
1187
1028
886
841
932
1095
1193
1136
1000
949
1054
1202
1201
994
729
610
695
861
950
927
861
828
851
911
954
891
677
395
207
167
109
-176
-610
-830
-557
93
748
1227
1754
2629
3811
4946
5758
6261
6559
6596
6262
5647
5018
4518
4012
3334
2596
2089
1889
1741
1382
884
540
463
448
267
-39
-237
-214
-95
-58
-90
-27
183
386
405
294
307
579
890
816
156
-797
-1459
-1487
-1105
-875
-1115
-1572
-1670
-1112
-213
373
234
-445
-1040
-1042
-525
-57
-111
-549
-740
-273
535
919
526
-194
-513
-277
-31
-282
-860
-1169
-945
-534
-400
-591
-806
-861
-888
-1050
-1274
-1381
-1355
-1344
-1409
-1443
-1375
-1324
-1458
-1753
-2002
-2059
-1975
-1886
-1862
-1883
-1915
-1944
-1950
-1914
-1859
-1849
-1918
-2007
-1992
-1796
-1475
-1183
-1061
-1114
-1198
-1165
-982
-784
-722
-800
-837
-656
-292
17
86
4
34
291
572
568
237
-99
-103
180
377
244
-30
-61
264
648
740
532
323
363
611
849
938
913
868
859
879
877
792
582
289
26
-99
-86
-19
39
97
207
373
548
671
720
723
739
791
833
810
741
715
770
833
802
679
553
491
479
488
556
726
943
1058
987
827
739
735
651
317
-234
-746
-940
-716
-193
412
986
1603
2442
3555
4750
5720
6268
6406
6269
5974
5576
5110
4598
4022
3337
2574
1864
1346
1024
769
483
195
-16
-123
-179
-225
-256
-255
-230
-221
-256
-317
-374
-423
-493
-622
-773
-860
-832
-713
-594
-564
-623
-711
-774
-826
-916
-1050
-1188
-1292
-1390
-1527
-1686
-1789
-1797
-1774
-1817
-1908
-1908
-1707
-1376
-1122
-1087
-1205
-1288
-1238
-1142
-1162
-1350
-1602
-1774
-1817
-1795
-1807
-1891
-1997
-2072
-2115
-2152
-2235
-2377
-2554
-2711
-2799
-2802
-2750
-2693
-2661
-2644
-2617
-2586
-2583
-2617
-2647
-2620
-2559
-2546
-2622
-2707
-2681
-2528
-2372
-2346
-2439
-2483
-2335
-2046
-1797
-1709
-1715
-1656
-1488
-1339
-1367
-1531
-1572
-1223
-462
419
1015
1124
867
545
364
268
21
-550
-1342
-2005
-2155
-1659
-779
-12
302
262
280
616
1059
1160
775
301
244
640
1033
1046
858
927
1337
1647
1415
807
469
835
1654
2266
2303
1979
1761
1853
2037
1980
1598
1136
908
1018
1345
1695
1930
1998
1918
1768
1664
1646
1610
1418
1104
898
990
1324
1644
1738
1624
1469
1386
1340
1201
895
492
191
196
562
1112
1579
1902
2316
3124
4333
5601
6553
7079
7304
7344
7177
6772
6229
5700
5204
4631
3948
3321
2956
2831
2690
2313
1751
1237
917
730
542
336
235
329
579
891
1189
1416
1499
1391
1160
939
773
586
279
-78
-278
-205
27
195
192
100
64
115
185
235
305
406
443
318
87
-62
11
247
443
445
289
127
57
60
55
-34
-227
-463
-661
-792
-917
-1108
-1323
-1437
-1402
-1340
-1436
-1694
-1882
-1794
-1535
-1443
-1713
-2163
-2396
-2243
-1949
-1905
-2218
-2590
-2642
-2301
-1864
-1689
-1861
-2141
-2240
-2099
-1914
-1903
-2089
-2308
-2384
-2275
-2066
-1849
-1659
-1491
-1350
-1213
-993
-653
-326
-203
-299
-374
-196
173
408
308
50
-57
55
194
226
250
423
686
843
831
796
870
999
1045
963
777
496
166
7
290
970
1585
1682
1314
948
938
1166
1287
1163
926
709
494
277
213
405
663
644
257
-176
-259
24
315
344
215
231
486
769
855
768
705
759
839
860
898
1058
1293
1443
1435
1390
1398
1328
972
339
-301
-705
-913
-1151
-1481
-1660
-1404
-753
-56
401
699
1184
2077
3214
4164
4634
4699
4649
4646
4585
4299
3822
3379
3091
2829
2409
1886
1509
1411
1423
1244
807
302
-83
-361
-649
-943
-1114
-1095
-992
-950
-976
-950
-794
-578
-450
-454
-519
-553
-570
-628
-706
-700
-568
-425
-441
-644
-859
-926
-897
-997
-1313
-1645
-1715
-1506
-1322
-1447
-1823
-2085
-1948
-1493
-1089
-1025
-1243
-1426
-1357
-996
-702
-651
-827
-1044
-1139
-1120
-1128
-1254
-1463
-1618
-1625
-1533
-1500
-1625
-1833
-1934
-1856
-1779
-1920
-2256
-2491
-2412
-2166
-2081
-2267
-2483
-2480
-2316
-2271
-2449
-2648
-2648
-2488
-2371
-2353
-2281
-2051
-1763
-1567
-1420
-1151
-749
-415
-305
-362
-392
-337
-307
-359
-370
-198
103
331
377
357
449
693
967
1138
1168
1105
1032
1038
1172
1396
1590
1648
1573
1470
1433
1504
1665
1853
1941
1849
1659
1607
1859
2281
2510
2332
1928
1682
1760
1957
1973
1766
1583
1658
1948
2205
2254
2162
2112
2200
2343
2409
2387
2401
2562
2820
2997
2964
2750
2480
2236
2019
1792
1549
1315
1141
1086
1163
1288
1333
1254
1132
1021
832
426
-102
-395
-176
443
1096
1592
2124
3004
4266
5585
6576
7071
7153
7008
6783
6507
6122
5580
4936
4336
3865
3451
2978
2456
2000
1649
1296
821
274
-176
-443
-592
-722
-829
-881
-910
-979
-1086
-1168
-1195
-1215
-1300
-1437
-1540
-1552
-1494
-1403
-1298
-1187
-1094
-1048
-1071
-1158
-1276
-1378
-1419
-1391
-1326
-1272
-1262
-1306
-1377
-1427
-1387
-1209
-964
-829
-932
-1214
-1478
-1607
-1685
-1909
-2333
-2787
-3058
-3108
-3078
-3106
-3186
-3241
-3250
-3259
-3297
-3345
-3384
-3442
-3543
-3630
-3601
-3442
-3284
-3269
-3396
-3526
-3517
-3375
-3243
-3265
-3448
-3615
-3544
-3175
-2698
-2426
-2485
-2663
-2650
-2390
-2138
-2157
-2385
-2509
-2360
-2109
-2010
-2085
-2095
-1861
-1490
-1218
-1138
-1134
-1068
-940
-805
-680
-530
-374
-313
-390
-462
-338
-18
249
219
-25
-126
165
674
952
792
457
349
539
689
500
96
-145
-72
104
143
95
220
588
936
978
735
502
514
683
741
559
293
213
416
749
970
968
831
718
677
627
474
256
95
51
63
42
-12
-22
53
176
266
259
134
-76
-303
-486
-642
-884
-1281
-1693
-1808
-1426
-662
169
904
1683
2737
4071
5410
6425
6955
7032
6785
6366
5885
5357
4718
3948
3160
2536
2127
1807
1425
980
590
288
-22
-389
-706
-831
-790
-752
-830
-946
-951
-835
-748
-829
-1023
-1154
-1130
-1050
-1069
-1201
-1296
-1202
-939
-687
-602
-656
-712
-680
-585
-494
-408
-276
-132
-93
-217
-388
-427
-318
-278
-509
-942
-1269
-1265
-1014
-814
-861
-1084
-1278
-1318
-1246
-1168
-1160
-1249
-1431
-1643
-1785
-1802
-1737
-1699
-1749
-1848
-1920
-1957
-1994
-2042
-2055
-2006
-1931
-1911
-1991
-2123
-2215
-2205
-2106
-2000
-1974
-2062
-2199
-2258
-2139
-1890
-1672
-1616
-1695
-1748
-1663
-1502
-1416
-1450
-1487
-1402
-1237
-1126
-1107
-1056
-856
-556
-323
-237
-199
-72
142
314
347
289
254
303
389
437
430
428
499
641
766
793
716
621
593
609
580
472
342
263
231
186
104
48
77
170
238
225
174
175
276
445
593
667
687
715
787
878
938
952
942
926
906
885
884
914
930
885
784
713
733
821
903
930
935
988
1081
1098
909
515
81
-214
-360
-530
-860
-1237
-1360
-1019
-302
521
1282
2043
2966
4092
5258
6213
6752
6822
6555
6179
5853
5536
5064
4395
3722
3283
3080
2877
2467
1898
1393
1070
824
487
27
-410
-639
-582
-323
-61
38
-19
-64
46
223
228
-50
-420
-591
-496
-357
-388
-540
-593
-459
-288
-246
-301
-290
-141
37
108
90
86
105
52
-122
-315
-376
-279
-159
-149
-228
-261
-187
-106
-158
-350
-541
-602
-564
-578
-735
-949
-1066
-1026
-938
-960
-1147
-1411
-1609
-1678
-1659
-1661
-1747
-1859
-1889
-1792
-1642
-1551
-1527
-1471
-1329
-1185
-1143
-1160
-1065
-790
-499
-397
-483
-562
-508
-445
-549
-766
-857
-729
-597
-713
-1006
-1110
-822
-375
-181
-333
-506
-390
-46
220
283
315
488
691
658
361
115
217
606
930
989
955
1116
1511
1930
2240
2567
3096
3735
4089
3852
3159
2507
2290
2441
2514
2130
1379
745
640
1010
1390
1378
994
578
400
437
522
602
736
914
1027
1026
1026
1187
1482
1727
1798
1742
1665
1563
1367
1140
1070
1228
1445
1476
1266
1007
902
961
1020
930
699
431
215
47
-165
-493
-857
-1033
-831
-288
334
815
1227
1848
2852
4080
5142
5741
5868
5749
5624
5528
5297
4736
3834
2824
2038
1636
1493
1337
998
547
167
-34
-132
-285
-576
-928
-1194
-1323
-1404
-1533
-1684
-1749
-1675
-1548
-1517
-1638
-1820
-1948
-1972
-1906
-1808
-1743
-1759
-1815
-1816
-1760
-1792
-2062
-2490
-2771
-2661
-2293
-2033
-2075
-2236
-2217
-1967
-1719
-1678
-1806
-1932
-1985
-2057
-2210
-2375
-2462
-2469
-2482
-2520
-2513
-2387
-2174
-1999
-1970
-2104
-2324
-2526
-2640
-2702
-2820
-3073
-3397
-3622
-3647
-3542
-3460
-3459
-3465
-3388
-3245
-3128
-3084
-3076
-3074
-3097
-3175
-3259
-3242
-3080
-2819
-2572
-2421
-2368
-2365
-2348
-2300
-2253
-2267
-2358
-2455
-2463
-2342
-2136
-1937
-1803
-1729
-1668
-1581
-1486
-1475
-1625
-1872
-1999
-1825
-1428
-1099
-1061
-1209
-1219
-917
-504
-330
-509
-806
-917
-790
-613
-563
-626
-663
-608
-509
-446
-445
-485
-550
-656
-795
-916
-949
-870
-738
-652
-659
-699
-674
-572
-482
-480
-521
-480
-314
-146
-112
-195
-239
-145
7
37
-103
-267
-286
-152
-30
-49
-155
-191
-90
16
-47
-284
-543
-709
-856
-1151
-1596
-1949
-1946
-1577
-1033
-470
144
934
1929
3024
4060
4899
5431
5594
5453
5172
4857
4448
3815
2980
2176
1656
1446
1360
1192
921
675
557
530
463
271
-17
-301
-501
-630
-750
-881
-955
-880
-643
-362
-206
-232
-316
-296
-173
-125
-297
-585
-718
-554
-277
-192
-356
-492
-350
-32
108
-97
-418
-515
-328
-116
-107
-254
-347
-294
-194
-168
-214
-266
-318
-413
-540
-601
-523
-376
-297
-348
-461
-523
-514
-519
-625
-798
-925
-947
-928
-979
-1124
-1263
-1290
-1208
-1128
-1142
-1239
-1330
-1346
-1298
-1248
-1248
-1322
-1449
-1566
-1595
-1519
-1420
-1389
-1413
-1380
-1215
-992
-844
-786
-690
-465
-199
-73
-122
-173
-45
225
435
472
431
479
647
804
830
752
687
679
669
609
552
592
726
838
845
812
887
1085
1237
1179
981
913
1126
1443
1552
1383
1207
1290
1546
1617
1300
792
453
406
458
403
278
280
495
792
998
1084
1161
1327
1549
1716
1743
1658
1566
1556
1617
1643
1548
1355
1182
1123
1164
1207
1178
1097
1064
1133
1227
1201
1006
756
585
485
294
-72
-443
-525
-209
343
929
1545
2322
3260
4184
4944
5571
6146
6555
6569
6139
5516
5020
4717
4420
3955
3361
2822
2468
2282
2142
1905
1482
904
341
-8
-105
-109
-182
-316
-368
-256
-63
67
80
48
40
25
-57
-194
-309
-364
-389
-419
-442
-412
-355
-357
-464
-609
-667
-606
-523
-536
-635
-700
-647
-526
-488
-594
-747
-806
-756
-720
-798
-927
-945
-801
-672
-787
-1161
-1526
-1598
-1398
-1226
-1334
-1643
-1833
-1705
-1409
-1236
-1277
-1388
-1411
-1384
-1439
-1590
-1703
-1693
-1662
-1737
-1871
-1887
-1708
-1489
-1424
-1504
-1533
-1377
-1132
-1021
-1089
-1159
-1047
-795
-612
-634
-768
-806
-656
-407
-209
-105
-40
26
70
75
80
136
235
310
338
369
459
588
700
776
855
961
1064
1131
1180
1256
1380
1519
1617
1644
1599
1513
1456
1461
1481
1402
1169
888
746
836
1044
1150
1035
799
667
760
967
1069
967
794
769
955
1214
1380
1422
1418
1429
1426
1402
1437
1573
1705
1681
1498
1349
1408
1610
1720
1611
1402
1339
1510
1800
2056
2186
2148
1923
1572
1243
1032
828
408
-248
-815
-891
-394
366
1037
1568
2179
3050
4134
5239
6161
6744
6893
6668
6321
6089
5946
5631
4976
4140
3423
2930
2518
2049
1604
1349
1275
1189
968
703
575
616
692
671
562
464
440
464
468
408
293
168
76
6
-77
-181
-273
-292
-233
-174
-212
-375
-577
-696
-694
-652
-696
-859
-1062
-1200
-1257
-1316
-1429
-1532
-1529
-1418
-1325
-1378
-1541
-1642
-1595
-1502
-1528
-1696
-1855
-1870
-1780
-1765
-1928
-2173
-2310
-2253
-2109
-2021
-2035
-2096
-2161
-2240
-2320
-2328
-2235
-2156
-2271
-2602
-2908
-2907
-2603
-2325
-2384
-2744
-3073
-3105
-2911
-2776
-2866
-3088
-3235
-3193
-3002
-2757
-2513
-2289
-2117
-2031
-2025
-2032
-1978
-1850
-1716
-1654
-1688
-1739
-1687
-1478
-1194
-999
-978
-1046
-1045
-887
-639
-455
-400
-378
-260
-35
178
275
283
304
368
402
344
230
157
169
195
144
7
-146
-228
-214
-141
-74
-58
-66
-14
150
376
533
552
510
524
600
646
621
602
673
796
852
808
782
868
978
977
881
857
979
1075
951
691
597
821
1149
1237
985
639
457
414
263
-159
-744
-1242
-1484
-1443
-1164
-682
-9
833
1801
2882
4044
5191
6144
6698
6772
6468
5998
5501
4974
4371
3691
3007
2395
1893
1509
1223
964
626
171
-304
-648
-804
-873
-972
-1088
-1111
-1019
-939
-998
-1155
-1251
-1209
-1149
-1263
-1583
-1907
-2013
-1880
-1695
-1653
-1765
-1881
-1887
-1837
-1861
-1977
-2068
-2024
-1890
-1811
-1837
-1857
-1752
-1583
-1516
-1612
-1734
-1701
-1536
-1471
-1663
-1999
-2224
-2204
-2062
-2019
-2145
-2323
-2407
-2387
-2373
-2438
-2523
-2538
-2504
-2544
-2722
-2928
-2988
-2891
-2826
-2951
-3175
-3249
-3086
-2887
-2889
-3085
-3253
-3261
-3188
-3177
-3241
-3276
-3232
-3152
-3029
-2794
-2442
-2094
-1896
-1811
-1670
-1406
-1169
-1148
-1327
-1475
-1388
-1097
-810
-693
-716
-686
-471
-162
29
-6
-122
-85
133
318
323
286
423
695
819
657
468
597
993
1215
1006
610
523
866
1256
1290
999
767
815
1006
1075
953
785
717
756
863
1021
1194
1301
1274
1164
1133
1303
1586
1748
1653
1425
1336
1519
1827
1978
1850
1605
1443
1372
1235
974
728
670
753
783
667
558
708
1141
1560
1552
1031
366
12
33
47
-342
-1056
-1564
-1457
-832
-118
419
926
1714
2848
4085
5142
5875
6256
6300
6061
5662
5205
4685
4020
3224
2475
1966
1724
1597
1413
1134
832
568
320
43
-245
-497
-681
-798
-878
-944
-987
-993
-972
-948
-954
-1014
-1130
-1230
-1218
-1083
-938
-925
-1050
-1169
-1174
-1127
-1176
-1344
-1481
-1441
-1264
-1119
-1095
-1118
-1091
-1038
-1074
-1229
-1390
-1424
-1336
-1266
-1312
-1426
-1484
-1431
-1326
-1257
-1259
-1321
-1398
-1446
-1432
-1364
-1307
-1326
-1393
-1402
-1303
-1165
-1099
-1125
-1166
-1181
-1233
-1379
-1561
-1658
-1656
-1676
-1797
-1918
-1861
-1598
-1315
-1195
-1203
-1150
-948
-716
-621
-666
-705
-641
-532
-469
-424
-295
-51
209
397
537
728
974
1167
1236
1250
1343
1550
1777
1905
1914
1878
1867
1907
1978
2004
1913
1696
1465
1371
1457
1615
1716
1750
1817
1977
2162
2275
2299
2294
2303
2299
2276
2242
2203
2121
1989
1894
1933
2067
2124
2001
1829
1840
2086
2342
2349
2112
1899
1942
2158
2242
2032
1682
1496
1582
1756
1740
1468
1146
1017
1115
1272
1336
1309
1347
1604
2084
2577
2746
2422
1807
1328
1194
1133
686
-174
-901
-923
-258
548
1079
1501
2243
3389
4588
5484
6065
6458
6582
6222
5420
4581
4058
3751
3273
2478
1688
1311
1362
1487
1420
1230
1082
914
527
-50
-460
-402
7
344
363
256
371
784
1198
1257
866
263
-219
-391
-300
-172
-189
-322
-384
-255
-63
-70
-361
-701
-787
-649
-591
-778
-986
-902
-572
-375
-502
-660
-504
-222
-411
-1264
-2128
-2171
-1402
-710
-814
-1425
-1662
-1189
-613
-655
-1278
-1815
-1838
-1625
-1700
-2129
-2470
-2328
-1802
-1349
-1309
-1622
-1967
-2086
-1971
-1859
-1977
-2313
-2638
-2735
-2596
-2377
-2226
-2159
-2149
-2200
-2320
-2470
-2544
-2471
-2296
-2130
-2033
-1968
-1864
-1696
-1518
-1399
-1346
-1298
-1190
-1031
-898
-855
-881
-890
-834
-753
-722
-755
-797
-793
-731
-644
-553
-473
-424
-417
-425
-408
-374
-394
-517
-671
-696
-535
-328
-293
-469
-653
-622
-384
-179
-201
-417
-636
-727
-713
-679
-669
-670
-657
-609
-506
-366
-282
-357
-555
-673
-537
-222
-17
-98
-309
-326
-27
350
471
281
44
11
134
180
40
-152
-232
-224
-307
-565
-872
-1066
-1144
-1260
-1530
-1871
-2089
-2069
-1824
-1396
-803
-71
729
1539
2383
3302
4233
4966
5301
5212
4839
4325
3690
2911
2057
1301
753
382
87
-161
-326
-429
-580
-879
-1302
-1721
-2030
-2226
-2343
-2386
-2352
-2269
-2183
-2096
-1984
-1874
-1848
-1951
-2121
-2246
-2288
-2302
-2343
-2387
-2360
-2259
-2172
-2190
-2316
-2458
-2532
-2521
-2465
-2421
-2425
-2481
-2558
-2615
-2632
-2637
-2655
-2680
-2681
-2650
-2617
-2606
-2602
-2571
-2523
-2524
-2615
-2765
-2894
-2965
-2996
-3024
-3064
-3117
-3192
-3271
-3320
-3318
-3301
-3345
-3462
-3568
-3580
-3511
-3471
-3526
-3627
-3667
-3599
-3465
-3346
-3278
-3246
-3215
-3159
-3062
-2938
-2818
-2718
-2622
-2488
-2293
-2057
-1839
-1692
-1630
-1614
-1597
-1552
-1495
-1440
-1374
-1271
-1124
-968
-849
-766
-705
-653
-592
-514
-421
-366
-399
-465
-432
-220
84
317
414
466
558
645
630
526
451
473
487
372
168
50
132
319
429
401
340
371
506
677
831
963
1046
1041
1001
1131
1622
2392
3088
3354
3173
2847
2655
2584
2417
2025
1492
1002
689
607
790
1204
1679
2021
2211
2396
2670
2960
3137
3155
3024
2697
2159
1621
1400
1507
1503
991
204
-79
621
1889
2862
3207
3462
4342
5865
7307
7961
7786
7291
6940
6780
6587
6196
5622
4984
4376
3851
3431
3121
2874
2619
2309
1939
1572
1300
1155
1083
1018
964
964
998
948
736
467
334
389
448
288
-60
-328
-322
-152
-91
-244
-452
-531
-496
-505
-622
-746
-758
-676
-614
-633
-688
-726
-748
-790
-857
-930
-1006
-1098
-1197
-1263
-1281
-1286
-1324
-1392
-1435
-1422
-1383
-1385
-1456
-1569
-1675
-1753
-1827
-1928
-2062
-2185
-2247
-2233
-2179
-2161
-2235
-2390
-2550
-2642
-2668
-2698
-2790
-2907
-2936
-2808
-2584
-2409
-2366
-2381
-2329
-2203
-2118
-2141
-2181
-2108
-1932
-1790
-1733
-1614
-1293
-887
-688
-804
-972
-863
-497
-229
-296
-493
-422
16
504
699
618
563
733
1004
1113
989
800
758
896
1067
1110
1015
919
954
1115
1244
1208
1040
908
908
961
939
834
759
786
852
875
878
950
1084
1154
1094
1000
1009
1096
1089
906
701
706
957
1254
1403
1421
1484
1674
1888
1954
1835
1642
1485
1363
1206
1026
922
934
978
949
877
894
1019
1081
898
517
190
74
51
-100
-384
-535
-298
310
1068
1812
2591
3538
4642
5703
6436
6666
6456
6048
5653
5266
4711
3892
3003
2395
2214
2227
2061
1603
1106
821
703
506
108
-304
-471
-362
-192
-166
-261
-296
-182
-42
-69
-296
-563
-703
-672
-577
-534
-555
-593
-619
-661
-744
-842
-916
-960
-985
-963
-836
-596
-341
-213
-266
-437
-627
-810
-1018
-1255
-1439
-1496
-1453
-1424
-1484
-1578
-1573
-1430
-1267
-1247
-1402
-1617
-1747
-1731
-1614
-1463
-1354
-1389
-1623
-1951
-2130
-1994
-1700
-1604
-1912
-2420
-2691
-2506
-2085
-1850
-1987
-2302
-2462
-2343
-2081
-1869
-1758
-1665
-1518
-1339
-1209
-1156
-1126
-1051
-925
-821
-797
-825
-782
-557
-212
28
7
-154
-141
197
632
786
597
448
720
1310
1701
1544
1069
799
973
1315
1423
1234
1038
1091
1343
1573
1692
1789
1944
2091
2109
1996
1883
1877
1958
2007
1952
1830
1726
1704
1755
1806
1789
1733
1750
1896
2051
2005
1709
1406
1409
1732
2022
1937
1546
1257
1365
1744
2020
1991
1769
1582
1517
1512
1504
1505
1530
1551
1539
1522
1521
1483
1334
1079
807
560
277
-103
-504
-719
-591
-164
369
895
1470
2232
3232
4372
5460
6318
6823
6940
6726
6303
5762
5119
4358
3536
2789
2224
1831
1533
1283
1097
974
831
571
199
-173
-437
-598
-737
-891
-1003
-985
-838
-690
-704
-901
-1150
-1313
-1419
-1593
-1882
-2154
-2237
-2142
-2040
-2051
-2115
-2115
-2036
-1983
-2020
-2094
-2112
-2046
-1954
-1900
-1918
-2005
-2114
-2138
-1998
-1775
-1663
-1778
-1997
-2116
-2097
-2079
-2157
-2264
-2295
-2263
-2283
-2391
-2508
-2547
-2536
-2530
-2537
-2584
-2740
-3009
-3231
-3213
-2992
-2860
-3015
-3291
-3367
-3179
-2995
-3028
-3147
-3094
-2882
-2800
-2977
-3129
-2917
-2437
-2150
-2316
-2638
-2625
-2198
-1764
-1675
-1810
-1805
-1557
-1345
-1428
-1676
-1719
-1393
-951
-751
-856
-1004
-914
-568
-209
-101
-296
-606
-752
-589
-235
25
-1
-212
-336
-224
6
94
-53
-270
-345
-255
-166
-207
-319
-340
-217
-63
-21
-97
-173
-168
-117
-73
-43
16
112
189
215
245
338
464
544
570
609
708
801
780
668
596
628
659
562
361
227
268
392
437
382
346
406
480
413
152
-192
-467
-641
-825
-1145
-1578
-1934
-1970
-1593
-968
-353
165
741
1595
2742
3939
4882
5447
5690
5701
5527
5201
4767
4256
3672
3042
2445
1980
1677
1474
1291
1092
872
639
399
166
-31
-179
-262
-262
-199
-167
-263
-469
-647
-682
-632
-674
-895
-1165
-1276
-1162
-947
-768
-662
-601
-585
-624
-687
-699
-642
-599
-651
-773
-843
-778
-635
-558
-654
-893
-1136
-1238
-1185
-1104
-1135
-1293
-1444
-1438
-1281
-1117
-1087
-1203
-1366
-1496
-1591
-1669
-1726
-1775
-1870
-2050
-2263
-2385
-2346
-2239
-2212
-2317
-2474
-2571
-2567
-2535
-2536
-2568
-2589
-2557
-2496
-2437
-2355
-2215
-2048
-1949
-1988
-2100
-2128
-1982
-1744
-1579
-1552
-1560
-1439
-1177
-915
-808
-850
-867
-710
-422
-201
-173
-248
-235
-33
223
313
181
-9
-61
59
192
190
89
37
124
289
397
393
327
272
263
278
272
224
159
137
205
330
416
406
339
292
289
280
217
133
128
230
373
466
487
502
566
657
719
736
743
765
788
792
781
780
796
819
827
818
787
739
678
615
567
575
654
740
710
512
247
63
-30
-209
-614
-1069
-1187
-791
-104
505
968
1604
2689
4065
5246
5907
6140
6228
6275
6142
5691
4986
4227
3549
2963
2445
2002
1661
1408
1204
1011
811
602
415
286
231
203
132
-6
-152
-203
-103
81
203
195
115
80
148
263
312
244
101
-61
-218
-359
-467
-530
-563
-574
-529
-370
-109
136
242
211
165
194
260
266
186
97
92
171
265
316
309
254
170
84
41
69
138
177
116
-48
-221
-268
-157
-18
-45
-279
-553
-668
-589
-472
-453
-508
-546
-559
-616
-717
-756
-657
-511
-498
-661
-839
-848
-685
-518
-489
-595
-713
-714
-557
-266
93
437
694
840
916
981
1042
1033
899
673
452
314
252
219
224
340
584
828
898
775
671
823
1188
1426
1261
830
574
733
1060
1097
730
339
313
543
565
185
-246
-270
111
457
475
368
530
1013
1491
1685
1667
1687
1816
1920
1913
1880
1911
1939
1837
1630
1494
1531
1620
1569
1357
1198
1322
1708
2101
2239
2086
1845
1727
1752
1755
1548
1101
567
149
-36
0
163
327
377
273
97
11
144
487
917
1351
1851
2559
3523
4628
5671
6484
6962
7035
6697
6078
5416
4874
4398
3835
3143
2463
1970
1677
1451
1190
881
549
188
-180
-459
-564
-541
-538
-635
-747
-740
-606
-457
-400
-465
-640
-920
-1237
-1438
-1404
-1225
-1146
-1293
-1521
-1566
-1382
-1202
-1250
-1488
-1681
-1716
-1716
-1842
-2058
-2169
-2081
-1924
-1885
-1976
-2023
-1905
-1714
-1655
-1805
-2040
-2184
-2200
-2199
-2264
-2358
-2385
-2331
-2282
-2313
-2386
-2400
-2313
-2182
-2112
-2181
-2387
-2672
-2939
-3114
-3210
-3326
-3530
-3742
-3796
-3602
-3267
-2998
-2901
-2913
-2892
-2770
-2613
-2527
-2545
-2607
-2616
-2511
-2326
-2166
-2093
-2077
-2014
-1858
-1695
-1632
-1647
-1598
-1389
-1115
-961
-974
-1003
-903
-745
-719
-866
-979
-841
-510
-281
-332
-514
-536
-303
-9
98
-30
-241
-353
-290
-90
129
235
156
-22
-104
27
266
372
230
-34
-192
-142
31
171
211
192
191
264
412
587
698
683
569
467
499
644
731
617
364
181
170
229
201
94
66
172
261
220
166
300
574
657
312
-271
-657
-658
-513
-584
-944
-1355
-1547
-1431
-1071
-559
36
660
1295
1984
2807
3789
4848
5775
6332
6387
6023
5500
5027
4570
3912
2961
1940
1191
847
741
619
404
195
72
-14
-161
-374
-562
-658
-722
-882
-1185
-1512
-1681
-1636
-1509
-1477
-1573
-1667
-1628
-1480
-1367
-1371
-1428
-1422
-1343
-1314
-1448
-1711
-1942
-2005
-1904
-1750
-1646
-1612
-1606
-1591
-1541
-1447
-1353
-1360
-1520
-1731
-1766
-1501
-1082
-794
-793
-979
-1159
-1251
-1323
-1453
-1643
-1873
-2122
-2344
-2448
-2379
-2232
-2165
-2212
-2265
-2212
-2092
-2052
-2161
-2306
-2297
-2062
-1724
-1476
-1381
-1326
-1191
-1042
-1065
-1307
-1545
-1496
-1171
-911
-959
-1128
-1002
-475
103
353
333
403
694
936
862
631
630
934
1171
998
554
320
541
945
1115
978
828
924
1205
1435
1511
1538
1646
1806
1903
1904
1881
1894
1910
1878
1821
1805
1812
1751
1598
1455
1463
1629
1798
1815
1682
1535
1495
1558
1632
1647
1611
1572
1582
1660
1773
1847
1829
1760
1755
1860
1982
1973
1811
1634
1600
1709
1812
1792
1679
1587
1553
1529
1485
1470
1513
1565
1592
1623
1675
1648
1431
1077
792
643
426
-51
-611
-785
-360
334
818
1060
1504
2478
3768
4870
5520
5849
6059
6137
5977
5600
5121
4570
3878
3071
2344
1886
1667
1485
1205
880
622
441
272
82
-89
-206
-279
-355
-454
-532
-515
-372
-198
-128
-208
-345
-388
-298
-192
-204
-321
-411
-391
-333
-358
-495
-659
-751
-767
-768
-798
-847
-898
-959
-1037
-1105
-1130
-1116
-1118
-1171
-1243
-1271
-1243
-1222
-1272
-1390
-1506
-1560
-1579
-1643
-1784
-1928
-1974
-1917
-1857
-1888
-1989
-2053
-2021
-1949
-1939
-2028
-2180
-2331
-2426
-2437
-2373
-2311
-2330
-2412
-2438
-2321
-2104
-1909
-1817
-1799
-1779
-1711
-1609
-1533
-1549
-1656
-1735
-1628
-1342
-1103
-1112
-1244
-1151
-681
-156
-29
-301
-480
-178
423
807
756
550
555
783
989
1051
1080
1147
1157
1025
905
1010
1290
1446
1335
1195
1330
1695
1927
1793
1479
1312
1344
1334
1111
815
653
607
530
444
577
1015
1498
1692
1632
1677
2029
2430
2470
2112
1739
1681
1869
1975
1863
1699
1709
1885
2023
2005
1920
1925
2032
2108
2004
1765
1586
1604
1752
1850
1824
1765
1755
1744
1620
1396
1181
980
639
66
-511
-669
-211
636
1464
2124
2836
3890
5303
6732
7694
7907
7475
6812
6331
6129
5910
5317
4372
3516
3165
3275
3363
3052
2468
2050
2011
2086
1879
1349
849
709
852
928
755
487
386
490
616
643
618
617
610
525
410
385
476
560
520
422
457
710
1045
1265
1310
1263
1232
1232
1205
1108
952
799
715
705
710
667
593
551
549
504
338
108
-20
16
89
14
-215
-404
-398
-272
-217
-310
-456
-554
-618
-713
-831
-910
-926
-934
-956
-939
-835
-706
-660
-717
-790
-796
-768
-807
-942
-1082
-1129
-1078
-991
-889
-726
-480
-246
-165
-240
-302
-190
52
209
155
24
72
381
754
937
888
780
779
873
936
911
857
843
882
957
1064
1191
1271
1217
1042
906
941
1076
1111
945
718
668
837
1013
972
730
516
506
636
697
587
430
434
647
906
1008
909
771
787
989
1230
1344
1306
1224
1202
1250
1333
1428
1479
1407
1191
980
996
1263
1499
1395
985
676
810
1278
1599
1416
852
324
119
126
45
-284
-762
-1145
-1223
-897
-220
640
1461
2131
2747
3508
4457
5375
5938
5982
5644
5184
4752
4364
3951
3489
3015
2543
2064
1581
1139
816
618
411
60
-411
-796
-930
-866
-823
-927
-1099
-1196
-1198
-1200
-1237
-1262
-1280
-1411
-1702
-1972
-1979
-1738
-1551
-1632
-1844
-1882
-1712
-1631
-1856
-2245
-2456
-2381
-2276
-2373
-2603
-2691
-2515
-2259
-2177
-2279
-2374
-2312
-2158
-2094
-2200
-2375
-2464
-2434
-2391
-2438
-2552
-2630
-2619
-2580
-2622
-2763
-2916
-2998
-3022
-3066
-3156
-3231
-3230
-3193
-3228
-3386
-3586
-3703
-3697
-3625
-3601
-3656
-3710
-3661
-3488
-3263
-3101
-3033
-2999
-2936
-2854
-2783
-2693
-2493
-2153
-1780
-1521
-1399
-1279
-1072
-879
-879
-1106
-1375
-1486
-1437
-1369
-1370
-1353
-1195
-913
-647
-499
-442
-399
-343
-317
-319
-275
-124
91
267
334
327
337
391
422
363
243
173
216
325
401
408
402
434
490
502
433
333
275
285
327
372
437
536
648
741
811
876
938
969
963
967
1001
1019
976
905
888
944
966
852
650
533
591
741
810
761
718
791
912
879
630
310
99
-34
-287
-736
-1177
-1318
-1087
-665
-216
316
1087
2120
3233
4235
5099
5799
6178
6071
5554
4938
4471
4078
3504
2696
1929
1492
1369
1300
1066
690
332
71
-135
-382
-685
-997
-1215
-1279
-1234
-1204
-1267
-1377
-1430
-1380
-1280
-1209
-1207
-1270
-1388
-1532
-1623
-1617
-1548
-1535
-1667
-1883
-2027
-2009
-1893
-1811
-1809
-1836
-1837
-1806
-1801
-1852
-1924
-1979
-1996
-1999
-2039
-2146
-2293
-2412
-2455
-2458
-2498
-2602
-2669
-2558
-2254
-1917
-1753
-1828
-2017
-2160
-2229
-2327
-2566
-2936
-3314
-3576
-3684
-3668
-3586
-3493
-3407
-3332
-3276
-3231
-3188
-3109
-2990
-2907
-2963
-3154
-3323
-3296
-3068
-2799
-2630
-2547
-2438
-2256
-2033
-1803
-1562
-1324
-1164
-1109
-1068
-904
-621
-382
-315
-343
-277
-50
194
294
259
245
354
515
594
556
485
470
504
539
575
663
799
896
889
832
857
1001
1122
1044
757
452
326
381
454
427
364
418
642
941
1186
1342
1478
1638
1792
1899
1982
2095
2241
2358
2411
2445
2514
2579
2554
2442
2364
2406
2467
2367
2092
1850
1832
1983
2054
1918
1730
1733
1930
2033
1784
1245
726
431
240
-96
-611
-1018
-993
-516
143
757
1365
2165
3209
4305
5201
5798
6154
6294
6154
5710
5104
4552
4135
3743
3236
2642
2105
1720
1417
1097
773
522
330
88
-243
-504
-513
-299
-140
-265
-569
-744
-677
-580
-715
-1041
-1243
-1147
-935
-907
-1091
-1203
-1004
-623
-391
-493
-836
-1190
-1392
-1383
-1193
-957
-890
-1095
-1383
-1416
-1102
-771
-841
-1320
-1779
-1843
-1588
-1369
-1363
-1401
-1259
-953
-664
-485
-390
-380
-543
-905
-1308
-1553
-1614
-1657
-1821
-2039
-2124
-1984
-1714
-1494
-1440
-1549
-1737
-1905
-1985
-1980
-1941
-1937
-1999
-2066
-2041
-1881
-1658
-1511
-1498
-1548
-1542
-1443
-1338
-1315
-1348
-1332
-1204
-1019
-872
-788
-709
-582
-427
-309
-266
-299
-386
-477
-499
-422
-301
-240
-276
-322
-252
-54
153
226
165
86
79
120
142
131
115
86
10
-95
-130
-50
21
-126
-528
-941
-1048
-803
-479
-387
-560
-744
-685
-402
-133
-86
-252
-453
-530
-462
-341
-253
-190
-78
114
307
375
270
88
-11
2
-14
-198
-503
-709
-641
-357
-83
10
-57
-139
-126
-47
-22
-152
-439
-810
-1201
-1618
-2088
-2531
-2760
-2635
-2180
-1542
-818
15
1022
2187
3409
4546
5427
5872
5801
5376
4916
4584
4231
3607
2717
1869
1347
1109
911
605
239
-95
-416
-774
-1104
-1267
-1229
-1137
-1164
-1328
-1500
-1553
-1476
-1355
-1285
-1321
-1462
-1662
-1840
-1908
-1824
-1653
-1537
-1580
-1738
-1849
-1812
-1710
-1707
-1851
-2018
-2069
-2013
-1966
-1975
-1976
-1912
-1839
-1860
-1989
-2149
-2282
-2387
-2465
-2479
-2432
-2421
-2516
-2627
-2568
-2282
-1952
-1829
-1965
-2172
-2263
-2255
-2293
-2446
-2636
-2771
-2864
-2959
-3030
-2995
-2875
-2821
-2948
-3180
-3310
-3249
-3115
-3093
-3206
-3297
-3233
-3062
-2939
-2932
-2955
-2894
-2759
-2653
-2625
-2605
-2489
-2262
-2019
-1865
-1799
-1720
-1529
-1239
-965
-813
-776
-744
-629
-455
-318
-257
-196
-67
82
137
74
26
130
347
491
461
362
360
455
493
385
238
214
302
341
261
201
324
574
723
646
476
429
561
734
792
711
583
493
481
552
661
729
701
623
628
801
1102
1388
1551
1587
1546
1463
1357
1257
1201
1179
1135
1047
965
977
1128
1354
1550
1665
1739
1796
1770
1596
1340
1193
1262
1415
1374
1024
595
453
762
1353
1948
2451
3026
3885
5062
6352
7436
8070
8198
7966
7590
7177
6684
6010
5169
4334
3702
3338
3133
2912
2598
2252
1965
1748
1557
1367
1198
1086
1048
1080
1186
1376
1604
1754
1741
1580
1381
1249
1202
1194
1173
1118
1034
953
918
931
930
832
644
494
487
580
646
642
661
783
932
958
824
657
580
563
509
393
280
199
100
-31
-113
-71
10
-44
-287
-563
-685
-638
-574
-618
-756
-895
-983
-1043
-1128
-1277
-1491
-1700
-1793
-1737
-1648
-1718
-1951
-2120
-2007
-1702
-1537
-1697
-1999
-2106
-1919
-1655
-1532
-1499
-1351
-1038
-750
-673
-748
-747
-561
-323
-234
-335
-465
-439
-224
80
358
555
667
718
737
755
786
818
832
833
856
913
997
1107
1257
1448
1632
1741
1743
1677
1614
1590
1588
1578
1557
1539
1534
1538
1554
1597
1663
1705
1669
1563
1476
1500
1624
1731
1721
1624
1574
1667
1848
1969
1940
1829
1780
1853
1972
2009
1916
1767
1662
1634
1640
1635
1606
1573
1562
1599
1657
1694
1703
1746
1852
1908
1737
1309
852
654
702
653
224
-379
-596
-102
830
1623
2040
2422
3247
4571
5930
6788
6971
6698
6281
5897
5542
5117
4535
3799
3054
2521
2319
2322
2258
1982
1582
1252
1062
901
652
346
130
83
119
105
42
49
177
324
347
206
-3
-179
-304
-387
-398
-306
-178
-132
-183
-201
-73
134
247
186
48
-40
-95
-208
-358
-391
-230
-6
70
-35
-147
-136
-94
-209
-507
-812
-953
-961
-982
-1053
-1069
-965
-836
-874
-1118
-1415
-1598
-1662
-1716
-1815
-1892
-1874
-1792
-1727
-1681
-1588
-1420
-1264
-1237
-1338
-1455
-1467
-1383
-1305
-1300
-1341
-1348
-1294
-1235
-1233
-1253
-1167
-900
-566
-367
-370
-418
-311
-47
156
143
-9
-96
-3
205
434
648
826
905
856
768
779
927
1080
1096
1020
1041
1264
1570
1764
1809
1848
2024
2269
2348
2136
1792
1627
1778
2053
2157
2002
1804
1838
2141
2500
2666
2569
2334
2156
2167
2359
2588
2680
2595
2496
2590
2906
3232
3355
3316
3331
3496
3671
3689
3571
3478
3465
3429
3314
3272
3487
3888
4161
4106
3879
3807
3979
4157
4060
3644
3093
2600
2230
1954
1710
1436
1126
895
930
1313
1904
2468
2941
3497
4340
5423
6441
7089
7313
7313
7296
7256
6998
6382
5513
4692
4122
3742
3342
2838
2342
1975
1676
1293
803
377
162
105
20
-170
-347
-367
-234
-91
-75
-209
-418
-602
-686
-660
-599
-598
-663
-686
-560
-317
-121
-113
-265
-433
-518
-528
-519
-507
-489
-499
-587
-747
-894
-950
-954
-1017
-1184
-1384
-1528
-1595
-1625
-1636
-1591
-1490
-1433
-1532
-1760
-1955
-2003
-1983
-2087
-2374
-2678
-2800
-2740
-2674
-2729
-2861
-2952
-2994
-3062
-3165
-3218
-3188
-3181
-3276
-3366
-3268
-2999
-2804
-2867
-3042
-3025
-2747
-2467
-2448
-2637
-2751
-2597
-2261
-1933
-1715
-1616
-1616
-1630
-1509
-1198
-881
-838
-1098
-1326
-1183
-731
-371
-349
-472
-378
6
392
504
382
276
293
303
148
-129
-350
-413
-360
-282
-208
-130
-60
-26
-6
42
108
112
-4
-186
-305
-295
-205
-148
-167
-203
-152
15
244
445
563
564
451
285
210
362
700
964
887
518
237
380
859
1199
1041
521
118
128
384
517
392
202
188
380
619
732
664
452
164
-120
-365
-630
-985
-1389
-1619
-1437
-823
-21
710
1340
2073
3113
4385
5537
6197
6248
5898
5480
5160
4844
4342
3620
2860
2281
1926
1651
1305
886
510
244
19
-276
-647
-978
-1142
-1125
-1054
-1077
-1216
-1359
-1384
-1292
-1212
-1251
-1390
-1528
-1590
-1579
-1529
-1447
-1345
-1276
-1304
-1431
-1551
-1548
-1438
-1357
-1393
-1487
-1518
-1469
-1432
-1454
-1456
-1369
-1280
-1342
-1538
-1639
-1479
-1229
-1245
-1640
-2117
-2292
-2102
-1849
-1839
-2071
-2304
-2352
-2217
-2017
-1869
-1825
-1881
-1972
-2004
-1953
-1895
-1920
-2019
-2095
-2098
-2084
-2115
-2157
-2119
-1974
-1803
-1710
-1722
-1774
-1771
-1675
-1534
-1427
-1392
-1394
-1356
-1218
-1010
-822
-709
-628
-501
-306
-104
12
26
39
163
397
616
684
621
583
691
889
1023
1042
1069
1228
1464
1598
1556
1492
1594
1830
1956
1813
1535
1402
1506
1658
1632
1433
1264
1261
1346
1373
1327
1332
1443
1544
1511
1385
1327
1414
1542
1559
1455
1361
1397
1535
1664
1730
1768
1828
1904
1961
1985
1973
1930
1850
1747
1653
1591
1553
1510
1445
1367
1309
1278
1265
1291
1391
1532
1589
1416
1047
709
576
536
288
-295
-936
-1183
-852
-178
496
1084
1783
2766
3940
5029
5810
6222
6311
6143
5770
5250
4655
4049
3476
2959
2504
2086
1687
1314
1008
790
619
423
157
-154
-400
-467
-344
-138
4
9
-63
-116
-122
-128
-175
-258
-350
-432
-485
-483
-411
-309
-242
-256
-344
-449
-514
-500
-419
-331
-319
-417
-549
-594
-514
-422
-448
-585
-697
-674
-578
-585
-755
-942
-967
-821
-682
-710
-873
-981
-922
-774
-708
-791
-926
-975
-929
-923
-1069
-1310
-1459
-1402
-1232
-1142
-1205
-1295
-1248
-1065
-932
-1004
-1222
-1386
-1381
-1267
-1175
-1137
-1091
-994
-875
-785
-717
-606
-433
-250
-113
-13
87
216
386
581
761
881
921
916
926
956
949
898
891
1017
1234
1368
1323
1212
1231
1421
1597
1554
1318
1126
1146
1328
1496
1562
1567
1571
1567
1533
1503
1530
1576
1534
1364
1196
1208
1429
1716
1915
1979
1964
1934
1910
1896
1895
1870
1766
1591
1446
1457
1624
1822
1952
2033
2133
2227
2211
2064
1925
1929
2018
1979
1713
1389
1265
1397
1590
1592
1368
1114
1016
1052
1033
848
577
357
195
-33
-376
-651
-565
-19
766
1441
1875
2281
3001
4189
5630
6855
7455
7369
6923
6562
6460
6361
5865
4864
3706
2878
2553
2484
2319
1948
1542
1269
1087
863
596
422
397
413
357
272
297
460
616
624
531
485
489
363
15
-376
-524
-344
-46
115
84
-22
-98
-141
-158
-138
-93
-94
-185
-298
-331
-291
-295
-432
-643
-778
-757
-663
-646
-775
-993
-1184
-1279
-1303
-1344
-1463
-1629
-1755
-1790
-1777
-1795
-1871
-1942
-1942
-1903
-1936
-2097
-2293
-2376
-2317
-2254
-2341
-2555
-2727
-2725
-2604
-2525
-2547
-2587
-2559
-2487
-2437
-2402
-2309
-2140
-1985
-1929
-1948
-1944
-1872
-1790
-1740
-1675
-1543
-1392
-1313
-1290
-1181
-910
-609
-505
-633
-764
-662
-379
-199
-290
-500
-557
-394
-196
-134
-167
-144
-34
60
86
147
332
571
721
740
716
711
686
574
381
169
-38
-242
-372
-320
-107
96
138
86
117
254
322
200
26
34
240
418
393
283
330
590
838
831
580
317
254
383
520
515
395
320
409
594
676
526
223
-24
-98
-88
-172
-410
-692
-864
-915
-969
-1131
-1375
-1551
-1510
-1215
-743
-186
436
1171
2069
3099
4136
5011
5582
5778
5624
5223
4691
4095
3415
2621
1783
1082
673
558
570
522
355
133
-60
-225
-413
-657
-928
-1166
-1357
-1505
-1607
-1613
-1497
-1316
-1175
-1133
-1157
-1164
-1099
-992
-931
-981
-1110
-1202
-1171
-1077
-1096
-1325
-1640
-1786
-1640
-1371
-1276
-1455
-1709
-1773
-1617
-1460
-1497
-1683
-1814
-1789
-1708
-1708
-1789
-1829
-1778
-1724
-1771
-1888
-1945
-1885
-1807
-1839
-1960
-2019
-1930
-1795
-1785
-1939
-2121
-2192
-2187
-2256
-2457
-2667
-2707
-2561
-2396
-2370
-2457
-2467
-2280
-1977
-1764
-1757
-1851
-1840
-1620
-1295
-1036
-913
-872
-844
-808
-759
-673
-544
-419
-357
-330
-224
24
330
533
599
654
811
1006
1106
1108
1154
1332
1528
1620
1693
1900
2207
2325
2069
1665
1557
1913
2423
2672
2595
2497
2646
2965
3181
3132
2872
2524
2166
1842
1603
1488
1482
1525
1563
1586
1628
1732
1916
2133
2272
2238
2078
1958
1981
2092
2166
2168
2196
2302
2388
2321
2126
1984
2008
2110
2094
1893
1644
1511
1503
1503
1456
1434
1496
1529
1355
991
671
556
499
194
-390
-884
-904
-467
69
455
814
1417
2313
3294
4164
4891
5441
5683
5516
5056
4569
4165
3694
3013
2243
1664
1401
1296
1118
843
626
552
492
287
-37
-315
-467
-590
-803
-1041
-1112
-951
-739
-706
-845
-929
-806
-611
-620
-891
-1186
-1253
-1114
-990
-1012
-1080
-1049
-929
-873
-963
-1101
-1144
-1079
-1029
-1117
-1329
-1529
-1595
-1516
-1385
-1326
-1382
-1483
-1534
-1530
-1548
-1653
-1806
-1921
-1972
-2013
-2079
-2123
-2064
-1930
-1852
-1917
-2064
-2157
-2162
-2176
-2286
-2434
-2501
-2475
-2470
-2558
-2656
-2622
-2445
-2278
-2230
-2243
-2204
-2129
-2139
-2293
-2467
-2502
-2390
-2247
-2135
-1985
-1707
-1332
-1008
-835
-776
-721
-613
-500
-459
-508
-584
-589
-476
-295
-152
-112
-143
-159
-107
-39
-58
-187
-348
-432
-396
-296
-222
-204
-184
-103
40
166
198
144
85
75
75
-2
-166
-308
-302
-153
0
47
37
103
281
469
553
562
608
709
759
681
569
549
600
607
564
641
946
1300
1403
1225
1095
1300
1697
1846
1531
1026
779
892
1029
861
452
142
114
196
139
-62
-230
-288
-358
-531
-672
-542
-106
421
886
1400
2159
3114
4008
4696
5274
5842
6226
6143
5604
5000
4673
4471
3937
2914
1835
1289
1363
1521
1179
359
-370
-513
-159
132
-49
-548
-864
-718
-348
-188
-354
-570
-518
-241
-46
-114
-275
-246
-12
144
0
-288
-355
-86
193
49
-530
-1057
-1041
-531
-80
-135
-545
-750
-412
225
620
521
197
83
311
620
679
444
165
98
223
295
157
-108
-265
-218
-127
-202
-460
-695
-750
-681
-644
-689
-716
-685
-709
-879
-1065
-1004
-619
-167
23
-104
-291
-290
-145
-99
-295
-626
-880
-966
-946
-908
-875
-813
-716
-627
-574
-561
-546
-481
-338
-145
18
93
111
172
337
546
682
679
594
549
589
664
728
797
903
1010
1064
1077
1130
1255
1361
1327
1181
1114
1262
1514
1624
1487
1245
1115
1146
1199
1133
949
740
583
502
500
560
618
606
540
532
678
941
1159
1211
1131
1064
1110
1221
1274
1202
1044
903
825
775
718
702
825
1068
1251
1176
896
686
747
935
920
556
70
-189
-119
60
83
-103
-361
-553
-635
-598
-421
-91
358
904
1576
2420
3404
4376
5143
5602
5773
5714
5432
4916
4243
3593
3131
2844
2528
2018
1420
1001
906
966
850
440
-15
-169
43
364
513
458
365
346
358
331
279
243
170
-48
-401
-688
-722
-559
-444
-518
-672
-698
-544
-366
-319
-387
-443
-447
-478
-595
-751
-869
-945
-1021
-1101
-1118
-1021
-864
-774
-821
-953
-1057
-1080
-1075
-1121
-1237
-1344
-1349
-1247
-1129
-1107
-1220
-1418
-1598
-1672
-1631
-1553
-1532
-1605
-1717
-1776
-1760
-1754
-1861
-2067
-2253
-2305
-2242
-2202
-2271
-2376
-2366
-2189
-1965
-1874
-1949
-2061
-2077
-1955
-1742
-1480
-1188
-914
-745
-703
-674
-518
-222
75
226
237
248
389
658
958
1212
1388
1448
1360
1158
991
988
1113
1173
1012
704
491
518
704
861
887
847
790
667
444
222
180
365
594
649
533
458
602
929
1266
1468
1491
1316
965
560
326
405
661
790
655
456
529
973
1535
1887
1923
1790
1649
1494
1270
1040
964
1097
1247
1175
867
600
638
951
1236
1244
1015
779
684
706
723
674
558
352
-6
-489
-870
-868
-391
360
1050
1502
1872
2477
3421
4397
4905
4708
4062
3457
3183
3118
2970
2614
2161
1803
1624
1568
1501
1299
921
445
25
-224
-330
-384
-431
-409
-291
-176
-202
-379
-584
-725
-831
-958
-1078
-1114
-1063
-1036
-1096
-1153
-1089
-951
-933
-1145
-1452
-1611
-1546
-1372
-1228
-1144
-1108
-1142
-1255
-1354
-1295
-1085
-918
-952
-1119
-1198
-1108
-990
-1019
-1182
-1326
-1371
-1390
-1482
-1634
-1747
-1788
-1808
-1842
-1873
-1897
-1987
-2201
-2454
-2555
-2403
-2116
-1936
-1991
-2142
-2144
-1928
-1687
-1668
-1917
-2234
-2351
-2204
-1947
-1780
-1745
-1728
-1592
-1314
-1030
-922
-1034
-1188
-1125
-786
-411
-314
-540
-784
-744
-471
-294
-392
-537
-384
90
589
861
986
1225
1633
1988
2044
1821
1545
1367
1282
1242
1258
1361
1514
1617
1609
1519
1408
1296
1189
1096
1004
867
658
445
381
530
759
820
638
400
361
541
686
601
420
418
656
883
830
549
331
370
576
738
764
687
560
421
355
423
539
542
375
192
194
385
618
809
994
1154
1151
872
458
177
79
-114
-637
-1319
-1729
-1620
-1156
-680
-313
105
767
1647
2540
3269
3785
4111
4239
4147
3868
3503
3158
2825
2419
1906
1375
995
853
803
618
238
-187
-452
-478
-389
-346
-413
-529
-604
-607
-609
-732
-1004
-1289
-1419
-1370
-1317
-1426
-1632
-1707
-1526
-1241
-1114
-1234
-1468
-1636
-1689
-1688
-1697
-1741
-1813
-1860
-1792
-1567
-1293
-1147
-1184
-1285
-1290
-1194
-1157
-1267
-1447
-1574
-1637
-1723
-1869
-2025
-2141
-2236
-2354
-2492
-2589
-2617
-2642
-2748
-2926
-3073
-3069
-2872
-2579
-2350
-2310
-2460
-2647
-2688
-2536
-2324
-2257
-2409
-2632
-2713
-2592
-2402
-2318
-2372
-2481
-2557
-2564
-2493
-2321
-2101
-1974
-2035
-2208
-2287
-2169
-1996
-1984
-2176
-2390
-2408
-2208
-1959
-1807
-1739
-1657
-1499
-1282
-1060
-850
-666
-537
-461
-406
-305
-131
51
107
-38
-313
-518
-491
-268
-50
-16
-145
-271
-281
-220
-230
-387
-642
-895
-1069
-1132
-1088
-970
-842
-750
-679
-597
-522
-483
-443
-322
-113
49
36
-97
-159
-51
110
139
30
-44
31
180
275
317
409
573
697
666
511
375
342
363
362
323
236
80
-109
-244
-307
-419
-738
-1214
-1566
-1555
-1250
-907
-606
-153
650
1707
2725
3543
4247
4908
5385
5474
5173
4724
4326
3933
3378
2651
1954
1502
1304
1197
1012
721
411
170
-7
-212
-511
-871
-1131
-1166
-1087
-1098
-1245
-1342
-1231
-1044
-1075
-1384
-1657
-1574
-1212
-977
-1100
-1347
-1328
-1003
-751
-878
-1291
-1622
-1661
-1564
-1586
-1763
-1899
-1808
-1549
-1361
-1396
-1532
-1520
-1301
-1113
-1263
-1714
-2050
-1983
-1718
-1758
-2252
-2741
-2710
-2275
-2073
-2427
-2906
-2879
-2399
-2195
-2739
-3556
-3723
-3048
-2351
-2486
-3271
-3704
-3198
-2249
-1797
-2094
-2499
-2412
-2020
-1959
-2432
-2959
-2991
-2600
-2306
-2392
-2571
-2408
-1861
-1300
-1055
-1090
-1134
-1072
-1063
-1274
-1586
-1631
-1207
-603
-332
-513
-665
-290
469
916
633
57
-40
455
852
567
-82
-245
371
1151
1328
889
502
617
986
1092
820
519
487
619
628
467
382
570
920
1139
1090
931
927
1150
1419
1485
1283
999
861
923
1054
1124
1132
1162
1261
1379
1440
1405
1284
1133
1010
939
920
933
962
1024
1129
1249
1329
1337
1312
1337
1410
1399
1178
800
504
461
555
480
117
-272
-318
42
515
839
1120
1669
2581
3587
4373
4889
5255
5461
5347
4872
4297
3897
3635
3203
2495
1834
1618
1814
1965
1715
1189
786
692
721
626
391
201
186
300
432
507
484
337
116
-33
-21
52
20
-133
-208
-57
204
301
126
-161
-347
-394
-450
-613
-804
-875
-772
-584
-421
-330
-282
-253
-262
-345
-511
-722
-924
-1095
-1243
-1359
-1413
-1417
-1430
-1501
-1621
-1743
-1827
-1865
-1877
-1799
-2009
-2162
-2236
-2117
-1908
-1929
-2394
-3095
-3543
-3473
-3152
-3071
-3342
-3552
-3268
-2575
-1975
-1820
-1979
-2073
-1957
-1827
-1902
-2133
-2271
-2146
-1832
-1531
-1359
-1258
-1085
-774
-400
-143
-114
-252
-389
-405
-307
-186
-110
-88
-99
-120
-111
-11
210
503
745
826
759
694
750
873
900
768
598
551
620
651
602
639
863
1046
820
179
-365
-280
350
896
904
605
595
1111
1673
2066
1910
1666
1651
1807
1863
1704
1488
1455
1648
1881
1932
1769
1574
1558
1731
1867
1754
1434
1155
1095
1195
1274
1244
1182
1200
1296
1367
1322
1169
991
855
758
629
380
-4
-403
-599
-453
-24
503
1024
1602
2360
3271
4133
4752
5115
5320
5380
5182
4667
3974
3349
2909
2574
2216
1828
1517
1354
1306
1274
1170
930
541
75
-334
-573
-630
-612
-632
-709
-760
-703
-558
-401
-311
-374
-627
-969
-1206
-1215
-1096
-1045
-1115
-1124
-896
-528
-327
-451
-737
-931
-989
-1064
-1241
-1422
-1507
-1565
-1703
-1809
-1635
-1142
-648
-519
-757
-999
-929
-598
-305
-236
-316
-389
-466
-673
-1031
-1404
-1677
-1895
-2198
-2634
-3062
-3246
-3082
-2705
-2363
-2211
-2218
-2272
-2299
-2311
-2328
-2321
-2239
-2090
-1951
-1885
-1869
-1801
-1613
-1394
-1328
-1465
-1667
-1734
-1600
-1375
-1162
-951
-716
-523
-480
-558
-579
-433
-228
-169
-270
-342
-215
72
344
481
507
505
535
614
696
669
472
215
124
275
450
371
50
-167
0
403
612
416
52
-100
53
264
269
76
-93
-53
192
513
777
918
961
967
1003
1064
1078
1005
909
926
1122
1408
1621
1677
1656
1705
1891
2124
2218
2073
1751
1456
1355
1461
1632
1699
1634
1591
1771
2223
2728
2943
2737
2345
2151
2273
2394
2091
1358
651
441
742
1157
1397
1614
2177
3193
4377
5356
5995
6399
6664
6756
6579
6135
5542
4916
4304
3691
3066
2474
2029
1807
1748
1666
1413
1010
610
336
182
79
-13
-114
-252
-396
-420
-218
98
209
-81
-594
-934
-909
-706
-641
-787
-920
-836
-577
-343
-225
-154
-54
42
48
-44
-140
-148
-69
18
34
-32
-122
-161
-132
-106
-160
-308
-473
-582
-637
-699
-808
-935
-1023
-1076
-1141
-1254
-1401
-1525
-1583
-1584
-1597
-1700
-1915
-2175
-2379
-2503
-2620
-2817
-3073
-3284
-3388
-3427
-3477
-3535
-3526
-3439
-3379
-3466
-3652
-3737
-3556
-3183
-2871
-2804
-2924
-2999
-2869
-2597
-2378
-2328
-2371
-2351
-2195
-1964
-1744
-1547
-1355
-1192
-1125
-1178
-1266
-1276
-1191
-1120
-1154
-1250
-1262
-1074
-722
-348
-82
47
91
98
74
-4
-120
-208
-218
-167
-114
-78
-9
138
326
456
488
490
552
647
669
577
485
538
722
872
885
865
991
1271
1495
1496
1362
1338
1502
1652
1579
1330
1138
1114
1144
1074
914
797
807
912
1078
1331
1661
1909
1863
1487
979
604
453
375
144
-282
-663
-638
-8
1081
2229
3130
3828
4613
5668
6815
7607
7732
7295
6704
6302
6065
5698
5009
4162
3495
3136
2883
2455
1820
1227
876
691
475
216
101
242
490
568
393
164
118
208
178
-114
-491
-646
-513
-353
-405
-575
-577
-350
-166
-304
-653
-841
-724
-544
-550
-663
-624
-372
-147
-168
-360
-459
-385
-286
-286
-310
-234
-69
42
41
23
71
133
82
-103
-309
-389
-290
-75
131
225
189
99
35
35
64
90
91
23
-134
-302
-334
-134
177
322
154
-170
-315
-132
225
491
571
612
815
1190
1557
1733
1700
1601
1581
1657
1736
1759
1774
1870
2069
2334
2619
2898
3133
3260
3271
3286
3449
3742
3988
4037
3950
3897
3938
4000
3990
3952
4001
4143
4277
4331
4368
4536
4927
5424
5723
5573
5028
4481
4334
4588
4816
4646
4174
3852
3983
4427
4784
4839
4660
4387
4117
3951
4001
4269
4534
4550
4335
4182
4342
4744
5064
5107
4923
4691
4539
4479
4440
4309
4043
3748
3650
3895
4352
4667
4647
4453
4373
4453
4403
3985
3340
2817
2513
2203
1721
1297
1341
1915
2617
3106
3558
4471
5992
7638
8787
9320
9640
10108
10546
10491
9772
8761
7981
7571
7217
6536
5540
4685
4365
4480
4529
4072
3185
2384
2086
2221
2394
2387
2366
2565
2895
3043
2835
2429
2097
1937
1851
1742
1605
1456
1352
1440
1845
2440
2756
2391
1525
846
865
1364
1634
1289
702
595
1181
1974
2312
2022
1542
1367
1501
1553
1287
918
827
1121
1559
1868
2044
2211
2304
2028
1312
525
158
245
316
-12
-490
-458
377
1524
2169
1972
1341
896
791
649
130
-600
-1021
-812
-154
496
877
1071
1268
1484
1576
1445
1167
918
791
794
974
1372
1931
2446
2756
2842
2846
2894
2984
3061
3099
3095
3054
3034
3196
3672
4299
4630
4379
3829
3599
3956
4450
4448
3927
3512
3736
4385
4765
4535
4068
3956
4308
4712
4794
4628
4535
4657
4820
4807
4634
4463
4368
4273
4104
3937
3907
4034
4204
4295
4291
4253
4227
4221
4236
4253
4228
4163
4108
4128
4165
4065
3814
3624
3708
3992
4131
3913
3529
3373
3606
3990
4202
4199
4141
4076
3875
3493
3092
2847
2689
2385
1845
1277
1002
1141
1599
2230
2938
3665
4411
5276
6380
7642
8683
9104
8829
8216
7690
7335
6908
6224
5428
4832
4561
4394
4021
3397
2817
2580
2634
2581
2133
1508
1253
1658
2372
2708
2352
1694
1352
1528
1897
2066
1990
1915
1973
2023
1906
1697
1578
1515
1231
581
-164
-484
-175
414
737
614
389
451
751
871
538
-79
-557
-664
-488
-224
8
211
435
719
1059
1352
1413
1139
640
156
-147
-317
-526
-886
-1316
-1647
-1738
-1538
-1112
-659
-393
-401
-591
-754
-819
-918
-1235
-1763
-2199
-2163
-1570
-775
-270
-231
-389
-368
-110
103
-2
-397
-789
-916
-744
-409
-74
178
364
537
718
827
775
582
443
567
952
1362
1605
1711
1861
2115
2288
2187
1836
1472
1283
1234
1176
1087
1113
1345
1654
1809
1757
1693
1819
2082
2217
2057
1727
1503
1504
1607
1634
1592
1616
1761
1901
1852
1604
1326
1173
1130
1090
1026
1062
1328
1800
2287
2573
2573
2367
2093
1831
1548
1154
635
136
-121
-34
267
523
591
568
652
856
953
749
342
35
-17
5
-203
-692
-1185
-1397
-1393
-1501
-1871
-2231
-2123
-1382
-302
673
1401
2120
3095
4250
5187
5546
5324
4847
4453
4199
3894
3360
2637
1926
1363
910
457
-14
-410
-683
-919
-1219
-1549
-1760
-1777
-1689
-1634
-1650
-1679
-1681
-1700
-1773
-1841
-1816
-1716
-1658
-1708
-1818
-1901
-1936
-1956
-1962
-1942
-1940
-2036
-2225
-2361
-2320
-2156
-2040
-2039
-2034
-1911
-1747
-1742
-1981
-2313
-2555
-2697
-2874
-3153
-3429
-3568
-3588
-3629
-3758
-3865
-3797
-3567
-3384
-3448
-3737
-4015
-4062
-3874
-3660
-3653
-3886
-4156
-4196
-3919
-3525
-3315
-3411
-3636
-3722
-3609
-3496
-3597
-3893
-4169
-4263
-4196
-4074
-3917
-3683
-3399
-3178
-3083
-3039
-2942
-2822
-2820
-3014
-3302
-3496
-3489
-3296
-2993
-2650
-2338
-2110
-1958
-1810
-1618
-1423
-1309
-1304
-1352
-1393
-1419
-1420
-1352
-1190
-1008
-950
-1069
-1251
-1312
-1173
-923
-737
-689
-717
-706
-607
-500
-517
-730
-1062
-1313
-1321
-1112
-863
-724
-664
-561
-356
-135
-30
-84
-232
-401
-564
-673
-653
-468
-203
-31
-36
-128
-167
-102
4
95
197
347
508
617
701
856
1102
1299
1281
1051
751
491
234
-67
-320
-428
-506
-835
-1519
-2281
-2699
-2634
-2340
-2096
-1822
-1167
11
1445
2750
3816
4806
5757
6356
6243
5458
4509
3889
3591
3166
2273
1092
138
-235
-133
34
-40
-358
-701
-864
-794
-625
-553
-651
-769
-724
-551
-486
-660
-874
-831
-554
-420
-686
-1134
-1371
-1325
-1294
-1494
-1772
-1889
-1894
-1995
-2153
-2074
-1677
-1362
-1591
-2281
-2833
-2816
-2453
-2290
-2525
-2806
-2677
-2114
-1524
-1259
-1310
-1452
-1587
-1820
-2203
-2540
-2544
-2194
-1818
-1766
-2036
-2333
-2484
-2634
-3042
-3718
-4393
-4842
-5093
-5280
-5392
-5274
-4856
-4283
-3800
-3564
-3563
-3672
-3755
-3735
-3637
-3557
-3549
-3560
-3462
-3197
-2865
-2642
-2603
-2653
-2652
-2542
-2368
-2219
-2144
-2123
-2098
-2008
-1838
-1649
-1550
-1594
-1690
-1656
-1399
-1041
-811
-849
-1070
-1245
-1186
-887
-501
-236
-199
-312
-391
-313
-147
-82
-222
-461
-588
-531
-438
-479
-647
-769
-737
-667
-722
-931
-1169
-1312
-1347
-1320
-1224
-1058
-921
-980
-1238
-1422
-1231
-748
-488
-870
-1687
-2205
-1892
-1013
-340
-255
-295
238
1342
2194
2048
1100
237
-32
-126
-740
-1865
-2693
-2516
-1571
-793
-819
-1334
-1530
-1094
-567
-741
-1768
-2926
-3341
-2900
-2292
-2146
-2246
-1811
-514
984
1746
1634
1419
1818
2677
3245
3111
2639
2422
2575
2747
2613
2181
1629
1069
538
90
-218
-450
-731
-1120
-1561
-1925
-2124
-2121
-1974
-1791
-1632
-1481
-1327
-1232
-1298
-1460
-1489
-1286
-1122
-1408
-2173
-2933
-3206
-3079
-3049
-3343
-3593
-3325
-2595
-1932
-1697
-1686
-1470
-972
-534
-479
-742
-1006
-1085
-1057
-1065
-1137
-1285
-1536
-1862
-2120
-2160
-2014
-1901
-1993
-2228
-2357
-2235
-2013
-1982
-2246
-2597
-2762
-2703
-2651
-2791
-3014
-3016
-2689
-2294
-2179
-2372
-2572
-2522
-2331
-2301
-2492
-2626
-2450
-2097
-1910
-1984
-2048
-1857
-1557
-1513
-1809
-2073
-1883
-1294
-779
-694
-880
-883
-501
-14
167
-43
-312
-279
57
386
482
461
592
932
1257
1320
1129
919
836
803
680
441
169
-65
-242
-315
-227
-32
92
21
-133
-126
115
368
359
63
-271
-418
-420
-489
-696
-893
-880
-632
-337
-196
-206
-165
53
318
372
154
-64
42
438
739
651
310
112
243
482
515
327
176
231
374
409
350
362
514
672
677
520
300
86
-141
-397
-663
-948
-1279
-1623
-1845
-1806
-1512
-1054
-502
145
895
1732
2669
3706
4680
5267
5255
4841
4480
4388
4293
3798
2898
2024
1531
1327
1080
635
148
-209
-455
-667
-794
-766
-690
-789
-1134
-1507
-1602
-1384
-1152
-1207
-1531
-1815
-1799
-1514
-1237
-1219
-1426
-1572
-1479
-1285
-1295
-1592
-1899
-1934
-1760
-1692
-1845
-1962
-1784
-1453
-1386
-1710
-2062
-2008
-1607
-1373
-1643
-2189
-2475
-2298
-1976
-1929
-2217
-2517
-2509
-2223
-1964
-1976
-2202
-2408
-2451
-2416
-2452
-2569
-2650
-2624
-2572
-2628
-2775
-2886
-2902
-2919
-3038
-3222
-3338
-3337
-3314
-3311
-3238
-2987
-2662
-2523
-2654
-2827
-2724
-2319
-1951
-1961
-2313
-2598
-2451
-1941
-1465
-1331
-1480
-1592
-1452
-1145
-907
-853
-887
-862
-748
-650
-650
-715
-720
-590
-381
-219
-142
-90
7
141
239
262
267
309
344
274
97
-12
135
503
830
874
666
492
586
874
1043
864
444
126
143
395
581
535
395
421
688
1012
1169
1140
1093
1171
1352
1497
1538
1535
1549
1590
1631
1648
1643
1607
1538
1494
1536
1647
1748
1805
1875
2019
2226
2405
2458
2343
2109
1844
1630
1455
1218
841
450
344
707
1406
2127
2752
3493
4568
5870
7017
7772
8189
8378
8300
7856
7149
6482
6006
5575
4994
4335
3865
3687
3579
3250
2688
2147
1797
1548
1207
751
381
331
601
929
1038
923
821
904
1100
1165
968
639
401
364
485
675
824
825
660
441
371
502
618
463
72
-215
-137
180
352
176
-164
-321
-176
66
138
-17
-230
-322
-274
-214
-245
-341
-416
-445
-472
-570
-735
-885
-968
-1020
-1093
-1201
-1306
-1382
-1440
-1496
-1541
-1551
-1504
-1426
-1367
-1364
-1404
-1428
-1393
-1327
-1301
-1340
-1391
-1370
-1279
-1200
-1189
-1193
-1110
-921
-706
-559
-479
-385
-218
-20
130
203
248
331
471
636
793
935
1077
1214
1319
1382
1421
1449
1487
1545
1621
1701
1764
1796
1826
1907
2051
2190
2228
2160
2086
2108
2206
2256
2182
2045
1944
1894
1823
1709
1621
1610
1612
1536
1416
1422
1641
1944
2134
2190
2285
2536
2821
2927
2827
2694
2669
2705
2673
2546
2429
2393
2395
2372
2350
2387
2478
2565
2615
2660
2722
2753
2721
2692
2744
2837
2809
2552
2154
1789
1501
1176
723
264
62
258
758
1367
2017
2811
3850
5065
6216
7057
7494
7602
7510
7289
6940
6429
5757
4984
4226
3606
3184
2919
2667
2293
1790
1296
956
786
652
444
217
123
209
337
352
273
246
325
374
243
-24
-227
-258
-207
-196
-184
-19
325
647
726
573
382
271
134
-199
-696
-1102
-1188
-999
-763
-656
-662
-673
-634
-590
-609
-725
-948
-1269
-1615
-1826
-1783
-1550
-1365
-1419
-1617
-1680
-1460
-1150
-1083
-1334
-1604
-1549
-1182
-848
-809
-964
-1015
-834
-612
-603
-814
-1023
-1043
-896
-706
-569
-490
-426
-345
-230
-79
64
115
49
-38
-25
88
202
243
262
351
510
651
716
771
895
1057
1139
1087
1007
1036
1186
1360
1473
1515
1520
1489
1406
1306
1220
1091
824
473
259
334
551
582
295
-50
-72
270
609
610
352
211
399
740
918
843
693
626
570
393
142
20
109
232
172
-53
-198
-82
194
360
270
58
-41
37
115
-18
-373
-721
-838
-747
-691
-852
-1112
-1164
-862
-404
-142
-221
-417
-399
-116
126
-5
-513
-1083
-1422
-1551
-1729
-2103
-2500
-2621
-2348
-1829
-1262
-647
177
1310
2598
3704
4358
4522
4377
4138
3877
3482
2800
1858
909
256
-20
-124
-330
-727
-1156
-1418
-1527
-1683
-2049
-2543
-2907
-2950
-2744
-2568
-2610
-2756
-2719
-2391
-1981
-1815
-1986
-2274
-2414
-2385
-2398
-2592
-2845
-2943
-2857
-2778
-2887
-3129
-3283
-3222
-3048
-2957
-3026
-3177
-3307
-3431
-3618
-3867
-4068
-4113
-4015
-3893
-3830
-3789
-3682
-3492
-3311
-3273
-3428
-3709
-4014
-4272
-4466
-4608
-4708
-4770
-4794
-4767
-4685
-4584
-4533
-4589
-4740
-4909
-5015
-5053
-5083
-5143
-5202
-5194
-5095
-4962
-4877
-4864
-4882
-4887
-4886
-4904
-4917
-4854
-4689
-4491
-4359
-4302
-4209
-3992
-3706
-3483
-3395
-3383
-3341
-3240
-3133
-3060
-3008
-2941
-2853
-2762
-2670
-2567
-2456
-2374
-2355
-2388
-2420
-2391
-2282
-2121
-1975
-1893
-1858
-1801
-1672
-1515
-1438
-1490
-1593
-1626
-1573
-1534
-1589
-1677
-1670
-1552
-1462
-1524
-1652
-1642
-1429
-1195
-1161
-1324
-1443
-1324
-1052
-879
-933
-1093
-1153
-1056
-904
-799
-734
-661
-597
-590
-610
-572
-445
-342
-401
-598
-744
-688
-482
-354
-459
-709
-863
-799
-663
-712
-1016
-1394
-1625
-1706
-1810
-2024
-2181
-2034
-1539
-878
-224
429
1180
2051
2954
3783
4454
4870
4950
4737
4394
4050
3724
3415
3243
3322
3512
3455
2956
2250
1756
1560
1287
578
-443
-1277
-1566
-1396
-1070
-779
-548
-377
-278
-211
-95
74
188
138
-65
-316
-526
-590
-393
64
499
506
-4
-593
-702
-260
228
267
-74
-288
-71
346
524
323
-26
-267
-374
-450
-505
-492
-450
-502
-688
-870
-901
-808
-727
-730
-790
-885
-1040
-1251
-1443
-1542
-1591
-1696
-1901
-2138
-2330
-2468
-2577
-2627
-2577
-2469
-2400
-2400
-2386
-2289
-2152
-2081
-2109
-2167
-2193
-2192
-2175
-2104
-1942
-1745
-1614
-1582
-1565
-1459
-1257
-1041
-883
-781
-698
-629
-584
-559
-527
-463
-361
-244
-173
-183
-236
-232
-109
77
207
208
121
47
51
117
199
274
321
310
243
180
201
305
398
393
313
234
170
74
-60
-136
-69
49
21
-223
-497
-548
-340
-86
5
-52
-85
21
224
413
526
575
598
641
751
912
1022
974
798
654
654
719
676
481
275
234
378
564
669
696
698
662
517
254
-16
-185
-296
-519
-938
-1385
-1559
-1295
-708
-67
469
987
1678
2607
3625
4474
4975
5127
5063
4915
4710
4397
3935
3387
2873
2424
1959
1419
885
512
338
198
-107
-557
-915
-1002
-918
-940
-1197
-1546
-1759
-1784
-1782
-1890
-2040
-2055
-1876
-1639
-1512
-1510
-1542
-1561
-1597
-1663
-1715
-1729
-1770
-1895
-2042
-2039
-1827
-1557
-1416
-1455
-1576
-1710
-1879
-2083
-2229
-2215
-2104
-2088
-2220
-2314
-2135
-1716
-1361
-1352
-1666
-2023
-2211
-2289
-2469
-2834
-3203
-3323
-3141
-2870
-2769
-2855
-2885
-2648
-2233
-1963
-2053
-2353
-2519
-2398
-2159
-2067
-2171
-2287
-2256
-2114
-2010
-1992
-1990
-1949
-1893
-1860
-1792
-1605
-1309
-1033
-881
-813
-702
-487
-223
-14
96
137
169
228
334
495
668
782
805
784
822
979
1211
1388
1409
1282
1125
1080
1187
1354
1442
1418
1381
1437
1562
1632
1589
1529
1582
1731
1809
1700
1506
1448
1614
1846
1926
1810
1655
1615
1692
1761
1726
1617
1536
1536
1599
1675
1744
1812
1910
2048
2189
2279
2292
2263
2253
2293
2358
2400
2403
2395
2399
2413
2433
2462
2473
2411
2274
2133
2054
1989
1824
1522
1197
975
819
569
186
-114
-49
444
1179
1935
2665
3479
4485
5634
6711
7452
7691
7470
7009
6528
6086
5583
4922
4141
3379
2771
2380
2189
2089
1907
1525
998
535
266
102
-168
-594
-1007
-1217
-1212
-1143
-1130
-1162
-1165
-1111
-1053
-1058
-1125
-1202
-1235
-1220
-1202
-1221
-1249
-1197
-1036
-887
-912
-1116
-1306
-1307
-1180
-1145
-1312
-1537
-1606
-1492
-1376
-1396
-1517
-1616
-1653
-1688
-1757
-1819
-1850
-1886
-1914
-1862
-1740
-1703
-1919
-2313
-2601
-2603
-2472
-2526
-2866
-3260
-3405
-3241
-2985
-2867
-2936
-3086
-3187
-3164
-3038
-2911
-2891
-2976
-3062
-3045
-2954
-2898
-2924
-2974
-2989
-2992
-2987
-2898
-2651
-2288
-1952
-1713
-1481
-1181
-908
-811
-846
-789
-546
-324
-392
-678
-792
-484
24
266
59
-297
-391
-161
90
69
-190
-429
-461
-299
-72
123
261
346
400
455
536
620
650
588
443
300
244
261
258
170
65
74
225
388
427
377
390
548
772
915
924
859
790
752
759
816
884
875
763
632
570
566
533
450
387
390
403
352
256
223
319
462
489
321
28
-244
-407
-504
-664
-937
-1205
-1259
-988
-486
81
676
1421
2424
3618
4802
5766
6379
6583
6418
6035
5584
5068
4380
3480
2548
1847
1456
1232
1003
743
537
416
294
111
-91
-258
-412
-619
-868
-1082
-1222
-1343
-1502
-1647
-1703
-1690
-1722
-1842
-1939
-1883
-1710
-1587
-1609
-1717
-1800
-1827
-1822
-1790
-1696
-1568
-1474
-1445
-1446
-1425
-1413
-1468
-1584
-1689
-1719
-1683
-1616
-1532
-1438
-1364
-1342
-1400
-1536
-1728
-1930
-2057
-2063
-2003
-2008
-2127
-2254
-2254
-2101
-1902
-1789
-1822
-1966
-2142
-2272
-2314
-2270
-2192
-2118
-2058
-2034
-2060
-2109
-2057
-1812
-1459
-1191
-1093
-1009
-758
-387
-111
-47
-90
-80
-23
-28
-77
-5
261
555
647
552
536
813
1242
1489
1425
1246
1231
1429
1646
1702
1611
1543
1606
1747
1851
1854
1804
1774
1795
1851
1918
1977
1999
1965
1893
1849
1883
1951
1938
1781
1597
1579
1768
1967
1925
1629
1320
1229
1326
1409
1385
1361
1471
1669
1781
1759
1734
1823
1957
1975
1849
1728
1745
1845
1861
1742
1606
1581
1658
1699
1606
1431
1316
1331
1415
1464
1454
1422
1374
1274
1103
902
709
479
150
-215
-401
-236
217
738
1217
1786
2638
3756
4879
5720
6191
6396
6435
6303
5937
5333
4582
3824
3173
2658
2261
1942
1674
1431
1184
934
715
548
398
208
1
-93
21
230
311
203
104
210
430
451
141
-257
-392
-206
15
8
-157
-218
-86
42
-56
-353
-601
-632
-531
-495
-581
-667
-615
-456
-351
-410
-567
-668
-663
-667
-812
-1069
-1262
-1258
-1116
-1021
-1083
-1221
-1262
-1136
-924
-759
-710
-765
-896
-1073
-1246
-1354
-1383
-1413
-1560
-1812
-2001
-1964
-1710
-1412
-1224
-1121
-968
-724
-520
-501
-634
-742
-723
-669
-742
-922
-994
-787
-381
-30
110
118
163
296
409
408
337
322
431
602
740
817
876
961
1081
1190
1217
1137
1018
971
1053
1208
1341
1427
1530
1690
1846
1892
1809
1680
1575
1487
1401
1361
1443
1616
1751
1768
1728
1755
1870
1975
1956
1817
1676
1633
1698
1775
1760
1651
1543
1513
1531
1517
1468
1498
1678
1882
1924
1815
1806
2083
2487
2644
2381
1941
1704
1785
1947
1912
1655
1379
1309
1525
1884
2092
1931
1492
1145
1197
1496
1563
1185
758
902
1704
2550
2825
2643
2718
3506
4668
5478
5613
5441
5487
5832
6063
5814
5170
4531
4181
4015
3702
3070
2295
1720
1516
1537
1494
1241
895
675
642
688
696
622
489
329
155
18
-30
-2
31
27
32
115
256
356
320
150
-80
-296
-479
-620
-712
-738
-683
-554
-386
-231
-155
-216
-422
-724
-1028
-1235
-1307
-1292
-1291
-1357
-1441
-1468
-1428
-1410
-1500
-1674
-1858
-2038
-2246
-2475
-2636
-2644
-2542
-2475
-2542
-2707
-2882
-3038
-3193
-3341
-3448
-3513
-3569
-3618
-3580
-3398
-3149
-2986
-2978
-3020
-2949
-2738
-2538
-2497
-2609
-2721
-2698
-2541
-2349
-2194
-2073
-1944
-1795
-1658
-1552
-1463
-1353
-1207
-1060
-967
-953
-980
-976
-911
-825
-801
-881
-1003
-1038
-882
-557
-236
-128
-308
-629
-836
-799
-640
-608
-802
-1060
-1122
-893
-532
-256
-152
-172
-245
-365
-519
-626
-630
-585
-609
-730
-809
-705
-465
-290
-320
-473
-558
-508
-452
-531
-695
-748
-591
-355
-294
-498
-789
-904
-787
-630
-632
-767
-831
-715
-568
-625
-909
-1177
-1176
-947
-799
-991
-1438
-1790
-1778
-1505
-1344
-1571
-2052
-2335
-2062
-1297
-444
171
614
1238
2271
3552
4676
5343
5524
5370
5028
4555
3966
3279
2524
1757
1058
499
99
-182
-398
-593
-819
-1142
-1572
-1993
-2245
-2302
-2315
-2453
-2699
-2857
-2775
-2511
-2277
-2220
-2310
-2428
-2513
-2585
-2658
-2702
-2696
-2667
-2667
-2697
-2718
-2702
-2677
-2681
-2718
-2764
-2790
-2777
-2725
-2657
-2614
-2621
-2668
-2725
-2768
-2805
-2838
-2841
-2810
-2788
-2822
-2882
-2879
-2764
-2609
-2538
-2585
-2660
-2690
-2717
-2816
-2972
-3079
-3068
-3005
-2989
-3032
-3043
-2977
-2908
-2918
-2963
-2935
-2847
-2846
-2998
-3146
-3042
-2650
-2244
-2117
-2259
-2371
-2204
-1836
-1561
-1560
-1720
-1790
-1651
-1398
-1190
-1082
-1025
-955
-850
-711
-531
-302
-53
153
280
364
482
653
793
777
587
335
200
276
486
662
736
823
1133
1766
2563
3192
3403
3224
2906
2699
2633
2560
2321
1897
1411
1051
978
1219
1598
1838
1806
1670
1742
2132
2589
2764
2601
2373
2345
2497
2640
2692
2753
2883
2971
2922
2855
2981
3288
3496
3393
3133
3063
3288
3551
3571
3368
3205
3270
3504
3701
3703
3496
3198
2977
2897
2820
2529
2017
1623
1736
2360
3076
3505
3733
4180
5079
6209
7157
7703
7895
7836
7551
7068
6499
5961
5441
4832
4103
3384
2862
2593
2462
2301
2032
1702
1395
1162
984
828
727
727
791
803
696
560
535
630
702
642
490
377
355
365
345
307
277
231
145
61
48
73
15
-172
-379
-456
-399
-362
-460
-662
-853
-963
-981
-910
-795
-757
-912
-1215
-1446
-1439
-1296
-1287
-1530
-1834
-1920
-1743
-1548
-1576
-1797
-1979
-1953
-1786
-1675
-1707
-1777
-1744
-1594
-1452
-1421
-1482
-1552
-1608
-1713
-1891
-2047
-2055
-1916
-1771
-1737
-1757
-1666
-1409
-1124
-1003
-1060
-1118
-1017
-791
-606
-556
-563
-493
-333
-176
-91
-40
57
207
333
392
424
512
670
819
879
853
822
875
1022
1191
1276
1238
1137
1076
1105
1181
1227
1221
1215
1257
1328
1374
1384
1414
1500
1570
1512
1309
1079
975
1041
1166
1215
1156
1072
1075
1194
1386
1590
1785
1971
2126
2218
2253
2282
2335
2363
2282
2061
1775
1543
1427
1388
1371
1354
1339
1333
1332
1370
1488
1665
1793
1767
1602
1424
1330
1272
1088
700
225
-47
155
839
1725
2491
3111
3893
5105
6562
7712
8147
7989
7647
7282
6694
5758
4763
4121
3845
3530
2905
2241
2008
2221
2385
2080
1428
887
687
661
572
440
416
514
605
621
635
688
693
590
472
476
563
562
446
424
667
1010
1111
879
630
702
1019
1180
970
614
489
662
852
834
690
622
651
631
515
459
575
722
626
229
-198
-355
-237
-117
-226
-488
-623
-468
-181
-56
-221
-513
-672
-648
-631
-818
-1141
-1323
-1189
-855
-572
-466
-458
-447
-442
-480
-491
-346
-55
180
203
126
248
722
1348
1768
1824
1691
1669
1876
2158
2300
2258
2198
2314
2640
3006
3216
3235
3190
3201
3235
3172
2972
2748
2649
2701
2797
2836
2820
2818
2853
2887
2891
2876
2856
2816
2728
2600
2494
2455
2465
2462
2410
2317
2223
2140
2036
1889
1719
1583
1518
1507
1512
1530
1592
1703
1811
1851
1829
1826
1899
2000
2025
1935
1809
1760
1799
1825
1741
1569
1423
1403
1474
1509
1411
1201
986
876
905
1006
1067
980
732
419
167
24
-117
-414
-894
-1350
-1466
-1086
-328
542
1369
2235
3320
4648
5963
6873
7135
6820
6230
5636
5083
4439
3630
2778
2096
1691
1487
1358
1232
1099
914
594
154
-247
-464
-552
-707
-1025
-1385
-1581
-1576
-1513
-1559
-1732
-1913
-1999
-1996
-1980
-2010
-2080
-2127
-2102
-2031
-2027
-2164
-2393
-2566
-2577
-2479
-2385
-2356
-2361
-2368
-2373
-2355
-2258
-2115
-2071
-2232
-2480
-2579
-2442
-2287
-2392
-2752
-3074
-3105
-2897
-2689
-2631
-2689
-2785
-2895
-2987
-2993
-2915
-2902
-3104
-3453
-3694
-3648
-3435
-3325
-3431
-3612
-3677
-3626
-3598
-3649
-3706
-3695
-3656
-3658
-3655
-3539
-3287
-3040
-2916
-2895
-2829
-2634
-2376
-2172
-2051
-1954
-1828
-1678
-1532
-1406
-1284
-1136
-939
-712
-506
-376
-329
-298
-220
-128
-102
-179
-294
-357
-338
-265
-163
-24
130
249
289
260
204
129
36
-69
-149
-184
-196
-199
-177
-114
-32
27
34
11
-6
-1
23
65
136
225
271
256
235
299
478
681
796
808
806
855
897
842
707
609
590
544
353
47
-197
-252
-167
-96
-104
-125
-71
32
49
-107
-391
-674
-880
-1057
-1293
-1586
-1777
-1658
-1175
-473
250
932
1702
2693
3852
4949
5724
6039
5944
5614
5229
4832
4322
3614
2811
2139
1730
1466
1125
672
310
187
164
-45
-535
-1081
-1391
-1403
-1323
-1353
-1480
-1551
-1461
-1270
-1108
-1056
-1121
-1259
-1381
-1384
-1250
-1089
-1052
-1131
-1150
-1023
-893
-986
-1305
-1559
-1492
-1223
-1118
-1332
-1587
-1501
-1089
-787
-945
-1406
-1693
-1554
-1241
-1209
-1575
-1985
-2020
-1672
-1329
-1351
-1705
-2035
-2083
-1937
-1885
-2069
-2351
-2498
-2450
-2319
-2220
-2170
-2154
-2209
-2350
-2473
-2443
-2272
-2136
-2158
-2259
-2246
-2055
-1814
-1672
-1604
-1490
-1320
-1239
-1331
-1456
-1394
-1119
-848
-791
-894
-900
-649
-270
-20
6
-43
22
196
313
267
143
98
165
235
207
126
125
251
418
507
495
456
447
461
472
488
535
600
639
641
646
691
751
761
687
574
496
480
489
483
464
458
479
518
581
680
808
923
977
972
956
972
1005
1023
1016
1001
990
966
907
829
777
778
810
810
730
603
527
564
680
786
830
817
755
617
407
202
71
-48
-265
-539
-635
-335
308
1040
1717
2451
3397
4496
5495
6222
6686
6924
6845
6339
5521
4697
4066
3521
2818
1931
1122
682
610
645
536
247
-79
-292
-370
-392
-439
-533
-654
-761
-807
-767
-645
-483
-326
-205
-162
-257
-484
-713
-801
-759
-768
-986
-1323
-1518
-1444
-1257
-1218
-1381
-1557
-1581
-1522
-1574
-1786
-1984
-1988
-1830
-1711
-1762
-1917
-1994
-1907
-1760
-1732
-1918
-2265
-2580
-2692
-2604
-2498
-2583
-2875
-3130
-3081
-2703
-2266
-2068
-2162
-2322
-2292
-2068
-1933
-2175
-2756
-3325
-3558
-3476
-3361
-3395
-3439
-3235
-2769
-2303
-2044
-1890
-1644
-1357
-1310
-1613
-1947
-1876
-1379
-895
-839
-1119
-1270
-1031
-613
-388
-457
-592
-596
-512
-456
-376
-127
259
499
368
8
-205
-59
251
327
-39
-662
-1130
-1138
-707
-143
204
229
147
254
612
974
1049
815
505
337
321
364
457
651
912
1072
1015
822
695
720
792
753
590
425
363
416
564
840
1260
1719
1994
1938
1642
1344
1202
1155
1030
769
492
334
322
377
420
426
419
458
564
676
693
605
527
520
392
-176
-1199
-2167
-2418
-1804
-852
-181
175
779
2106
3969
5668
6634
6808
6509
6065
5601
5086
4439
3627
2733
1943
1426
1190
1053
819
446
32
-348
-726
-1132
-1482
-1629
-1545
-1386
-1360
-1532
-1784
-1967
-2049
-2110
-2220
-2375
-2558
-2783
-3043
-3248
-3281
-3129
-2920
-2788
-2725
-2631
-2452
-2259
-2157
-2178
-2255
-2339
-2448
-2605
-2767
-2863
-2894
-2936
-3057
-3231
-3353
-3355
-3267
-3164
-3109
-3119
-3186
-3296
-3436
-3572
-3659
-3680
-3688
-3779
-4006
-4311
-4554
-4621
-4540
-4478
-4600
-4922
-5271
-5438
-5341
-5080
-4826
-4686
-4650
-4637
-4570
-4422
-4237
-4104
-4098
-4208
-4333
-4358
-4247
-4050
-3846
-3695
-3652
-3749
-3937
-4077
-4034
-3820
-3580
-3431
-3340
-3170
-2863
-2515
-2261
-2133
-2077
-2068
-2119
-2217
-2279
-2247
-2168
-2128
-2142
-2136
-2065
-1972
-1944
-1969
-1936
-1795
-1653
-1645
-1736
-1716
-1433
-1035
-872
-1146
-1673
-2056
-2076
-1895
-1828
-1978
-2149
-2114
-1881
-1642
-1512
-1420
-1262
-1093
-1080
-1263
-1449
-1398
-1086
-762
-703
-937
-1224
-1302
-1159
-1020
-1107
-1429
-1777
-1941
-1902
-1785
-1688
-1635
-1636
-1703
-1810
-1907
-1990
-2133
-2381
-2627
-2708
-2635
-2608
-2761
-2938
-2803
-2212
-1376
-596
89
902
2014
3304
4437
5135
5315
5050
4495
3828
3169
2526
1821
1013
187
-492
-914
-1121
-1255
-1458
-1796
-2259
-2752
-3142
-3345
-3402
-3415
-3459
-3505
-3449
-3245
-3003
-2879
-2947
-3138
-3314
-3398
-3423
-3341
-3289
-3259
-3275
-3323
-3365
-3376
-3388
-3487
-3712
-3976
-4119
-4089
-4007
-4029
-4149
-4190
-4010
-3683
-3436
-3409
-3510
-3568
-3536
-3534
-3691
-3986
-4265
-4395
-4392
-4372
-4431
-4571
-4731
-4844
-4881
-4858
-4822
-4827
-4882
-4931
-4883
-4696
-4432
-4206
-4065
-3956
-3784
-3533
-3284
-3129
-3080
-3056
-2963
-2765
-2503
-2239
-2000
-1750
-1427
-1018
-603
-308
-184
-143
-56
119
285
363
349
313
332
473
760
1074
1199
1068
943
1187
1766
2138
1811
1006
519
820
1472
1654
1144
568
615
1228
1754
1770
1505
1412
1574
1687
1539
1261
1107
1122
1161
1117
1023
977
1004
1087
1202
1290
1303
1237
1157
1113
1095
1085
1108
1158
1119
861
448
143
149
338
370
95
-241
-255
136
590
669
273
-300
-692
-824
-929
-1275
-1879
-2483
-2774
-2621
-2109
-1419
-662
175
1140
2231
3316
4183
4662
4735
4545
4241
3845
3292
2577
1851
1288
918
612
256
-145
-518
-822
-1086
-1357
-1639
-1919
-2175
-2364
-2418
-2340
-2280
-2396
-2657
-2835
-2763
-2577
-2597
-2901
-3182
-3079
-2636
-2325
-2501
-2961
-3196
-2998
-2700
-2728
-3072
-3338
-3247
-2940
-2734
-2719
-2729
-2673
-2686
-2902
-3210
-3345
-3211
-3028
-3071
-3358
-3615
-3582
-3306
-3077
-3130
-3414
-3662
-3703
-3637
-3665
-3823
-3949
-3930
-3893
-4010
-4213
-4236
-3980
-3717
-3810
-4240
-4550
-4363
-3844
-3542
-3753
-4212
-4423
-4193
-3788
-3580
-3676
-3894
-4009
-3938
-3717
-3441
-3227
-3152
-3178
-3156
-2968
-2671
-2442
-2365
-2355
-2279
-2116
-1957
-1886
-1893
-1905
-1853
-1738
-1609
-1531
-1537
-1585
-1586
-1479
-1301
-1148
-1089
-1095
-1095
-1083
-1110
-1198
-1300
-1374
-1438
-1499
-1521
-1470
-1420
-1502
-1719
-1868
-1758
-1455
-1238
-1284
-1456
-1468
-1226
-911
-755
-784
-829
-733
-488
-222
-68
-47
-68
-44
28
45
-90
-318
-484
-495
-403
-323
-287
-247
-169
-78
-18
21
48
15
-158
-464
-766
-897
-823
-669
-623
-771
-994
-1033
-719
-157
354
659
979
1705
2944
4331
5371
5939
6324
6728
6955
6625
5727
4773
4247
4018
3538
2586
1613
1247
1510
1756
1407
577
-144
-412
-432
-567
-862
-1086
-1119
-1062
-1013
-929
-772
-640
-656
-765
-786
-669
-573
-642
-824
-921
-842
-683
-618
-741
-1011
-1269
-1330
-1152
-922
-928
-1245
-1596
-1673
-1516
-1443
-1630
-1878
-1883
-1633
-1417
-1420
-1502
-1415
-1164
-1015
-1141
-1430
-1662
-1777
-1884
-2058
-2232
-2299
-2244
-2162
-2131
-2144
-2122
-2013
-1844
-1730
-1772
-1927
-2036
-2000
-1914
-1949
-2132
-2272
-2178
-1894
-1636
-1524
-1479
-1409
-1377
-1481
-1640
-1630
-1380
-1120
-1113
-1318
-1381
-1049
-501
-181
-305
-627
-709
-402
1
119
-100
-348
-337
-128
0
-74
-187
-147
-27
-63
-334
-598
-585
-336
-161
-274
-577
-798
-795
-650
-553
-630
-866
-1120
-1215
-1078
-816
-637
-648
-746
-750
-624
-463
-331
-190
-32
17
-158
-443
-564
-389
-94
35
-61
-176
-131
37
165
189
189
219
203
47
-206
-382
-358
-189
-45
-38
-115
-150
-103
-73
-206
-516
-846
-1049
-1184
-1429
-1809
-2062
-1859
-1175
-360
208
552
1050
2013
3294
4416
5019
5119
4969
4730
4385
3886
3271
2609
1909
1173
557
308
470
708
632
226
-151
-239
-229
-524
-1186
-1792
-1933
-1705
-1546
-1698
-1922
-1819
-1338
-812
-603
-766
-1088
-1324
-1391
-1366
-1366
-1439
-1558
-1665
-1773
-1895
-1939
-1790
-1502
-1339
-1475
-1732
-1716
-1332
-991
-1206
-1940
-2570
-2585
-2184
-2041
-2488
-3144
-3377
-3037
-2579
-2469
-2689
-2877
-2851
-2827
-3058
-3443
-3626
-3484
-3321
-3508
-4026
-4450
-4420
-4058
-3801
-3933
-4312
-4577
-4557
-4381
-4240
-4141
-3985
-3783
-3670
-3703
-3737
-3596
-3324
-3139
-3120
-3077
-2834
-2535
-2510
-2815
-3060
-2828
-2195
-1694
-1694
-1966
-1953
-1449
-807
-513
-632
-829
-820
-723
-824
-1159
-1411
-1271
-829
-494
-533
-762
-751
-313
269
544
338
-119
-472
-578
-557
-570
-663
-782
-886
-969
-1030
-1028
-916
-733
-570
-503
-540
-604
-570
-391
-137
49
112
139
275
553
840
977
975
1014
1189
1351
1278
994
770
811
975
960
705
454
452
642
782
813
913
1196
1454
1379
959
532
422
543
511
128
-359
-513
-140
564
1278
1898
2560
3393
4353
5304
6146
6812
7171
7092
6630
6046
5586
5249
4821
4167
3412
2813
2501
2360
2192
1895
1489
1061
685
410
248
159
98
61
87
184
279
292
211
113
60
22
-87
-297
-500
-567
-476
-328
-249
-270
-338
-415
-508
-633
-759
-837
-870
-921
-1037
-1177
-1251
-1213
-1115
-1050
-1069
-1135
-1173
-1147
-1103
-1127
-1250
-1414
-1534
-1572
-1574
-1591
-1611
-1580
-1485
-1395
-1386
-1472
-1592
-1700
-1794
-1898
-2008
-2090
-2104
-2056
-1968
-1868
-1770
-1675
-1587
-1529
-1516
-1540
-1557
-1508
-1369
-1179
-1007
-894
-822
-746
-638
-519
-433
-406
-443
-503
-510
-398
-169
101
314
450
588
797
1047
1215
1218
1106
1013
1000
1014
954
813
700
723
882
1077
1194
1214
1182
1134
1059
951
846
808
858
953
1032
1085
1165
1312
1507
1652
1670
1573
1454
1393
1395
1399
1350
1278
1278
1388
1526
1582
1551
1573
1769
2049
2177
2051
1871
1929
2216
2371
2083
1512
1139
1213
1430
1325
853
448
495
856
1047
818
396
158
182
197
-45
-482
-832
-893
-675
-272
296
1082
2090
3216
4310
5302
6210
7008
7572
7706
7316
6526
5622
4850
4243
3655
2975
2286
1766
1505
1413
1331
1156
832
296
-483
-1353
-1971
-2065
-1705
-1264
-1037
-963
-755
-282
275
636
704
567
341
73
-172
-275
-178
38
208
260
259
285
349
406
421
374
253
77
-56
-76
-40
-56
-137
-203
-260
-485
-999
-1590
-1819
-1568
-1271
-1421
-1910
-2114
-1709
-1172
-1217
-1859
-2361
-2222
-1881
-2174
-3216
-4194
-4357
-3886
-3581
-3817
-4120
-3865
-3084
-2379
-2190
-2356
-2448
-2319
-2204
-2320
-2597
-2789
-2761
-2583
-2387
-2224
-2076
-1940
-1810
-1661
-1476
-1300
-1238
-1335
-1471
-1444
-1175
-826
-647
-702
-806
-761
-575
-443
-507
-691
-779
-680
-523
-494
-639
-843
-980
-1033
-1076
-1166
-1286
-1397
-1458
-1423
-1250
-983
-767
-733
-841
-893
-750
-507
-391
-490
-660
-709
-609
-474
-393
-366
-387
-500
-695
-857
-865
-743
-632
-626
-649
-575
-413
-305
-347
-470
-545
-534
-526
-630
-823
-959
-929
-794
-714
-785
-934
-972
-799
-551
-494
-739
-1125
-1371
-1394
-1413
-1680
-2157
-2483
-2326
-1708
-958
-345
188
917
2007
3326
4521
5271
5471
5252
4866
4500
4161
3695
2981
2126
1398
978
788
602
287
-91
-397
-623
-885
-1254
-1643
-1905
-1979
-1952
-1965
-2050
-2108
-2030
-1835
-1688
-1761
-2062
-2415
-2619
-2628
-2567
-2575
-2661
-2721
-2670
-2534
-2416
-2387
-2424
-2464
-2470
-2452
-2425
-2386
-2330
-2306
-2373
-2497
-2549
-2442
-2254
-2172
-2293
-2518
-2673
-2717
-2756
-2850
-2904
-2806
-2624
-2567
-2726
-2942
-2988
-2856
-2786
-2996
-3424
-3783
-3865
-3724
-3598
-3649
-3821
-3924
-3816
-3550
-3315
-3255
-3337
-3394
-3288
-3044
-2798
-2618
-2440
-2211
-2011
-1979
-2115
-2245
-2206
-2057
-1983
-2027
-2013
-1775
-1368
-1001
-758
-533
-221
86
203
132
80
204
409
487
389
272
297
452
628
767
909
1085
1247
1342
1395
1461
1548
1584
1512
1361
1227
1189
1230
1255
1186
1045
953
990
1092
1112
994
845
806
892
1032
1221
1528
1939
2297
2474
2569
2788
3130
3284
2971
2320
1783
1656
1779
1783
1542
1294
1326
1643
2022
2296
2483
2662
2859
3031
3113
3056
2857
2562
2253
1968
1669
1331
1042
980
1254
1816
2547
3372
4284
5305
6439
7679
8915
9853
10147
9735
8980
8368
8015
7610
6880
5967
5277
5013
4979
4887
4668
4426
4195
3866
3389
2894
2533
2291
2054
1808
1661
1703
1884
2077
2184
2186
2105
1978
1847
1753
1690
1628
1569
1555
1617
1713
1744
1665
1523
1404
1353
1339
1324
1290
1240
1182
1110
1026
942
889
876
865
802
677
537
424
317
171
-16
-172
-257
-324
-460
-657
-808
-840
-818
-879
-1038
-1184
-1227
-1217
-1280
-1442
-1591
-1621
-1556
-1501
-1499
-1497
-1445
-1359
-1285
-1229
-1180
-1143
-1147
-1178
-1175
-1096
-971
-868
-819
-787
-713
-557
-329
-80
121
234
292
381
562
787
962
1018
990
958
949
946
940
942
952
945
903
861
868
938
1037
1135
1247
1363
1426
1409
1396
1513
1753
1926
1853
1608
1472
1629
1929
2027
1796
1462
1358
1543
1769
1772
1568
1393
1422
1586
1691
1656
1569
1534
1547
1544
1517
1534
1618
1694
1683
1627
1652
1781
1889
1844
1668
1513
1460
1435
1343
1227
1195
1235
1202
1007
765
628
573
435
156
-78
-25
329
796
1272
1874
2757
3843
4857
5583
6007
6203
6169
5877
5382
4820
4272
3700
3071
2489
2102
1935
1850
1671
1351
970
641
405
234
88
-47
-125
-87
47
171
180
79
-19
-46
-75
-239
-562
-874
-978
-825
-570
-409
-409
-477
-488
-428
-396
-488
-672
-808
-791
-654
-494
-361
-265
-211
-240
-347
-430
-385
-254
-234
-433
-698
-752
-483
-92
112
19
-234
-458
-594
-695
-817
-977
-1205
-1514
-1847
-2066
-2036
-1764
-1422
-1242
-1342
-1612
-1762
-1570
-1126
-822
-978
-1470
-1815
-1670
-1211
-906
-955
-1073
-878
-383
28
89
-32
11
305
599
651
542
529
739
1021
1211
1314
1419
1517
1515
1411
1330
1374
1487
1521
1415
1267
1223
1335
1557
1777
1854
1676
1296
944
859
1041
1234
1213
1061
1045
1303
1688
1959
2045
2044
2054
2059
1998
1884
1785
1757
1815
1995
2357
2835
3223
3362
3322
3328
3463
3534
3289
2757
2273
2133
2279
2421
2414
2390
2508
2699
2767
2683
2643
2785
2969
2966
2769
2627
2735
2973
3048
2834
2492
2204
1943
1546
996
521
378
598
989
1390
1857
2558
3527
4584
5480
6087
6411
6483
6303
5890
5323
4688
4014
3309
2648
2156
1892
1760
1596
1327
1009
722
476
226
-39
-280
-462
-595
-677
-666
-535
-333
-204
-247
-407
-534
-543
-509
-557
-705
-841
-872
-831
-810
-811
-746
-596
-493
-584
-828
-1016
-1023
-945
-984
-1233
-1591
-1906
-2116
-2212
-2211
-2151
-2124
-2197
-2325
-2391
-2345
-2283
-2295
-2399
-2555
-2743
-2928
-3005
-2888
-2667
-2592
-2778
-3030
-3041
-2772
-2532
-2618
-2957
-3191
-3089
-2782
-2574
-2623
-2801
-2890
-2793
-2585
-2423
-2401
-2477
-2522
-2431
-2228
-2029
-1914
-1847
-1720
-1524
-1354
-1293
-1282
-1192
-992
-785
-681
-661
-597
-402
-134
76
147
122
114
187
304
378
359
274
208
232
316
377
375
358
407
513
556
431
214
135
315
570
567
196
-236
-304
51
420
372
-68
-466
-473
-183
24
-43
-215
-239
-83
88
176
250
393
557
615
543
435
370
349
338
333
343
323
215
46
-73
-51
73
158
115
13
-15
61
124
51
-142
-343
-509
-718
-1020
-1278
-1240
-793
-90
604
1204
1885
2844
4009
5070
5725
5904
5740
5387
4913
4335
3695
3047
2406
1743
1064
459
59
-95
-115
-197
-452
-810
-1092
-1191
-1172
-1180
-1264
-1373
-1461
-1550
-1645
-1673
-1566
-1381
-1285
-1362
-1491
-1490
-1347
-1229
-1290
-1462
-1558
-1529
-1525
-1670
-1876
-1938
-1793
-1604
-1564
-1679
-1790
-1786
-1721
-1713
-1759
-1736
-1562
-1323
-1191
-1243
-1366
-1385
-1258
-1120
-1132
-1315
-1541
-1680
-1711
-1702
-1713
-1772
-1879
-2024
-2151
-2178
-2107
-2059
-2143
-2301
-2346
-2179
-1955
-1926
-2129
-2316
-2245
-1996
-1870
-2020
-2265
-2307
-2070
-1750
-1543
-1425
-1245
-953
-653
-440
-267
-42
209
356
351
325
429
643
788
747
637
651
820
977
980
901
935
1144
1355
1382
1274
1245
1401
1590
1599
1428
1296
1369
1530
1509
1247
992
1018
1294
1487
1328
915
621
690
995
1195
1106
856
717
810
1028
1196
1254
1275
1338
1431
1513
1582
1667
1758
1781
1672
1468
1294
1235
1263
1275
1219
1140
1117
1155
1194
1165
1085
1054
1143
1289
1301
1052
621
267
158
168
-9
-497
-1035
-1184
-749
49
838
1475
2155
3139
4410
5638
6438
6654
6430
6031
5625
5210
4702
4072
3402
2811
2361
2039
1806
1607
1375
1053
640
219
-107
-311
-458
-597
-705
-729
-681
-630
-608
-560
-444
-324
-319
-465
-655
-767
-776
-742
-712
-694
-699
-756
-829
-820
-684
-530
-517
-649
-741
-644
-448
-385
-556
-809
-928
-870
-759
-718
-745
-782
-807
-824
-830
-821
-831
-904
-1015
-1077
-1049
-1012
-1086
-1277
-1467
-1551
-1544
-1546
-1605
-1673
-1685
-1647
-1617
-1628
-1672
-1728
-1790
-1843
-1852
-1800
-1720
-1664
-1630
-1566
-1437
-1289
-1169
-1064
-919
-723
-540
-440
-416
-407
-378
-321
-228
-89
59
140
130
114
207
415
631
781
897
1043
1192
1261
1238
1216
1265
1324
1287
1172
1125
1244
1451
1563
1486
1294
1125
1043
1023
1025
1036
1074
1139
1211
1273
1351
1442
1494
1456
1348
1262
1263
1315
1359
1465
1809
2430
3091
3417
3271
2866
2497
2234
1952
1587
1260
1098
1066
1067
1141
1412
1787
1908
1526
863
469
674
1250
1656
1629
1412
1424
1786
2232
2395
2138
1657
1286
1241
1533
2079
2812
3706
4723
5794
6854
7819
8504
8674
8220
7358
6526
6001
5646
5125
4342
3569
3111
2949
2771
2356
1822
1410
1153
852
372
-171
-552
-683
-702
-791
-972
-1113
-1083
-878
-617
-442
-418
-489
-532
-470
-362
-322
-396
-528
-666
-831
-1059
-1278
-1329
-1153
-916
-862
-1035
-1200
-1138
-922
-843
-1049
-1335
-1411
-1279
-1245
-1504
-1863
-1949
-1663
-1309
-1244
-1481
-1712
-1681
-1464
-1334
-1454
-1746
-2023
-2159
-2152
-2058
-1938
-1834
-1786
-1806
-1874
-1946
-2009
-2095
-2244
-2429
-2564
-2591
-2526
-2449
-2400
-2338
-2230
-2129
-2123
-2204
-2247
-2130
-1877
-1621
-1419
-1195
-853
-422
-86
-12
-203
-484
-632
-558
-362
-237
-283
-418
-464
-326
-84
81
46
-149
-362
-467
-455
-398
-365
-372
-382
-342
-243
-125
-63
-77
-101
-42
93
185
144
56
114
347
499
295
-202
-583
-513
-100
247
298
237
388
821
1297
1567
1597
1491
1324
1117
926
818
767
676
513
386
414
565
679
612
383
149
69
164
268
175
-128
-396
-395
-209
-205
-594
-1084
-1159
-661
31
491
802
1449
2692
4185
5310
5808
5904
5918
5849
5481
4724
3762
2860
2109
1451
861
451
311
348
323
62
-376
-772
-979
-1076
-1242
-1521
-1789
-1915
-1909
-1849
-1763
-1626
-1467
-1387
-1434
-1529
-1561
-1521
-1499
-1541
-1593
-1596
-1575
-1594
-1654
-1709
-1738
-1757
-1750
-1667
-1499
-1313
-1185
-1107
-1015
-902
-844
-884
-941
-905
-802
-789
-977
-1286
-1519
-1570
-1534
-1578
-1754
-1941
-1992
-1899
-1801
-1816
-1918
-1974
-1912
-1802
-1783
-1901
-2061
-2143
-2115
-2042
-1995
-1976
-1947
-1906
-1880
-1861
-1772
-1540
-1192
-832
-550
-341
-143
55
158
76
-135
-307
-329
-266
-251
-305
-285
-50
368
788
1057
1176
1256
1365
1468
1505
1461
1394
1369
1401
1448
1475
1512
1635
1878
2155
2315
2297
2226
2297
2540
2773
2790
2617
2482
2525
2650
2709
2747
2897
3111
3123
2841
2552
2637
3036
3234
2871
2243
2014
2490
3288
3797
3835
3738
3878
4259
4619
4785
4798
4748
4646
4465
4272
4197
4263
4334
4263
4048
3844
3791
3878
3948
3848
3571
3285
3200
3366
3606
3660
3439
3106
2926
3019
3256
3437
3528
3703
4171
4977
5965
6903
7602
7967
8003
7791
7432
6969
6367
5613
4799
4081
3562
3207
2919
2661
2486
2435
2448
2396
2214
1950
1704
1534
1419
1329
1264
1221
1165
1040
856
698
637
658
672
620
538
518
594
717
779
699
477
220
57
46
130
202
198
128
43
-11
-22
-4
-7
-97
-296
-543
-740
-834
-848
-830
-793
-742
-706
-718
-756
-757
-708
-675
-743
-911
-1082
-1175
-1172
-1089
-971
-866
-814
-793
-750
-690
-699
-835
-1007
-1036
-885
-749
-842
-1102
-1243
-1084
-767
-585
-637
-744
-689
-457
-184
45
253
459
606
650
659
751
936
1085
1080
952
858
909
1079
1266
1407
1500
1556
1584
1583
1561
1546
1549
1564
1572
1550
1516
1541
1678
1870
1941
1755
1390
1112
1118
1314
1411
1256
1023
1021
1341
1757
1978
1936
1823
1838
1977
2073
1988
1771
1605
1654
1904
2154
2195
2009
1828
1916
2268
2564
2470
1982
1451
1228
1322
1478
1450
1242
1064
1105
1334
1531
1514
1326
1168
1127
1020
608
-20
-412
-201
466
1096
1462
1874
2786
4208
5682
6760
7380
7705
7801
7595
7106
6518
5955
5364
4656
3887
3235
2803
2569
2446
2371
2286
2113
1819
1502
1303
1261
1306
1383
1461
1489
1411
1257
1149
1146
1094
757
133
-447
-610
-338
38
219
235
334
624
949
1110
1086
1012
960
883
758
654
616
579
462
312
256
303
275
8
-421
-710
-655
-382
-196
-245
-396
-401
-192
35
9
-329
-752
-974
-933
-828
-892
-1127
-1321
-1303
-1138
-1029
-1076
-1179
-1208
-1155
-1118
-1121
-1082
-934
-758
-689
-718
-670
-411
-20
269
349
354
497
820
1143
1270
1198
1070
997
973
943
916
939
1026
1144
1262
1395
1555
1710
1792
1769
1676
1567
1477
1429
1435
1492
1553
1565
1535
1513
1531
1549
1512
1455
1474
1592
1693
1640
1449
1279
1262
1368
1479
1536
1572
1592
1549
1434
1348
1393
1509
1504
1295
1038
978
1186
1500
1718
1787
1784
1773
1742
1671
1574
1475
1348
1174
986
855
828
901
1053
1253
1442
1539
1484
1301
1102
986
964
976
939
817
658
594
777
1255
1905
2536
3084
3680
4518
5594
6642
7319
7450
7144
6669
6238
5872
5433
4777
3915
3054
2422
2095
1941
1759
1448
1069
740
511
344
183
5
-153
-247
-294
-333
-380
-418
-442
-476
-516
-502
-400
-294
-296
-375
-307
62
526
651
236
-396
-697
-483
-126
-108
-487
-884
-936
-678
-438
-443
-626
-793
-837
-778
-683
-612
-602
-648
-705
-725
-738
-833
-1012
-1144
-1108
-962
-890
-998
-1190
-1299
-1273
-1215
-1237
-1350
-1499
-1638
-1712
-1665
-1515
-1389
-1420
-1577
-1687
-1658
-1598
-1654
-1796
-1847
-1725
-1547
-1457
-1414
-1287
-1066
-901
-901
-993
-1007
-889
-732
-615
-519
-385
-204
-24
108
173
182
174
176
185
183
188
256
408
537
500
325
247
465
879
1150
1090
900
920
1200
1415
1235
713
235
81
168
220
109
-56
-95
44
273
485
618
659
637
627
733
988
1286
1475
1458
1261
1019
864
809
737
509
132
-161
-93
339
802
945
772
623
760
1034
1105
899
696
764
1004
1086
877
593
492
517
361
-118
-679
-927
-678
-93
544
1135
1836
2796
3892
4765
5122
5012
4757
4604
4494
4174
3532
2740
2104
1759
1571
1293
804
211
-237
-368
-283
-265
-488
-825
-982
-852
-651
-694
-1004
-1301
-1360
-1275
-1312
-1536
-1724
-1662
-1415
-1260
-1364
-1597
-1705
-1620
-1528
-1630
-1883
-2032
-1893
-1594
-1468
-1707
-2119
-2342
-2233
-2006
-1965
-2152
-2342
-2308
-2070
-1817
-1698
-1738
-1924
-2223
-2510
-2606
-2478
-2328
-2388
-2623
-2756
-2609
-2326
-2249
-2514
-2899
-3134
-3236
-3440
-3875
-4307
-4340
-3858
-3207
-2900
-3111
-3504
-3595
-3261
-2879
-2881
-3276
-3628
-3537
-3042
-2537
-2340
-2386
-2397
-2214
-1963
-1878
-2019
-2208
-2223
-2019
-1754
-1595
-1519
-1388
-1145
-917
-885
-1060
-1276
-1408
-1487
-1568
-1589
-1416
-1036
-615
-344
-242
-225
-238
-268
-295
-268
-219
-251
-408
-555
-518
-329
-225
-390
-692
-834
-688
-440
-346
-447
-514
-333
27
285
255
58
-18
143
374
435
320
259
451
835
1143
1185
993
704
418
185
48
6
-31
-157
-345
-431
-297
-25
162
119
-88
-316
-468
-574
-706
-897
-1091
-1187
-1079
-711
-118
599
1334
2039
2731
3445
4142
4695
4949
4813
4371
3834
3332
2846
2279
1634
1059
683
510
431
337
182
-55
-391
-827
-1302
-1720
-2012
-2182
-2286
-2389
-2519
-2625
-2606
-2408
-2137
-2005
-2138
-2449
-2725
-2831
-2803
-2745
-2673
-2546
-2393
-2312
-2342
-2387
-2295
-2091
-1981
-2119
-2432
-2680
-2720
-2637
-2623
-2757
-2953
-3092
-3131
-3105
-3038
-2950
-2899
-2982
-3208
-3428
-3457
-3281
-3115
-3199
-3531
-3866
-3955
-3782
-3552
-3458
-3517
-3630
-3707
-3709
-3603
-3382
-3157
-3123
-3339
-3606
-3658
-3477
-3329
-3439
-3697
-3782
-3562
-3251
-3123
-3189
-3226
-3091
-2885
-2781
-2779
-2742
-2551
-2218
-1824
-1428
-1088
-889
-868
-934
-941
-850
-774
-835
-1000
-1078
-904
-509
-116
69
81
137
399
716
743
341
-196
-410
-222
-30
-199
-616
-828
-629
-319
-296
-547
-734
-672
-556
-609
-727
-635
-298
-24
-48
-209
-151
204
540
522
195
-92
-83
167
406
437
256
38
-3
230
647
1045
1305
1493
1752
2108
2419
2565
2570
2508
2351
1983
1416
896
686
761
820
612
217
-57
1
295
582
746
895
1167
1622
2284
3175
4224
5098
5370
4921
4141
3580
3363
3075
2303
1210
428
336
597
546
-30
-693
-948
-851
-856
-1178
-1489
-1339
-704
-11
329
319
252
311
391
280
-85
-549
-898
-1018
-952
-840
-767
-725
-680
-657
-754
-1044
-1471
-1878
-2130
-2205
-2194
-2185
-2209
-2244
-2251
-2202
-2094
-1965
-1900
-1966
-2124
-2262
-2310
-2366
-2604
-3060
-3529
-3716
-3522
-3141
-2847
-2707
-2551
-2221
-1787
-1492
-1513
-1829
-2301
-2794
-3222
-3495
-3569
-3496
-3398
-3337
-3246
-3033
-2746
-2546
-2492
-2470
-2370
-2280
-2410
-2754
-2997
-2839
-2383
-2073
-2214
-2624
-2846
-2640
-2175
-1750
-1475
-1280
-1122
-1027
-975
-867
-700
-631
-780
-1019
-1078
-872
-639
-620
-746
-732
-462
-160
-120
-373
-648
-711
-615
-591
-763
-1016
-1168
-1207
-1302
-1575
-1892
-1926
-1507
-896
-592
-837
-1320
-1452
-968
-229
141
-99
-589
-774
-474
0
233
122
-116
-240
-213
-151
-149
-199
-266
-357
-477
-586
-612
-545
-450
-398
-403
-421
-409
-371
-368
-465
-675
-952
-1210
-1439
-1731
-2172
-2664
-2922
-2708
-2081
-1351
-730
-109
779
2007
3303
4276
4736
4778
4620
4395
4098
3649
2997
2196
1413
819
481
326
214
62
-122
-315
-536
-811
-1101
-1332
-1467
-1515
-1495
-1418
-1308
-1202
-1115
-1053
-1020
-1041
-1149
-1333
-1511
-1582
-1506
-1333
-1180
-1151
-1244
-1326
-1255
-1031
-839
-883
-1151
-1395
-1376
-1117
-886
-905
-1138
-1352
-1374
-1235
-1058
-921
-822
-758
-746
-763
-737
-639
-551
-605
-806
-1008
-1068
-990
-905
-904
-953
-967
-935
-927
-991
-1092
-1174
-1223
-1266
-1309
-1308
-1236
-1122
-1021
-935
-830
-705
-621
-651
-777
-889
-899
-808
-684
-564
-413
-185
118
430
692
902
1096
1276
1395
1427
1413
1430
1513
1580
1505
1284
1121
1276
1731
2150
2241
2107
2142
2526
2966
3064
2819
2618
2685
2754
2456
1873
1492
1605
1933
1984
1669
1373
1455
1840
2164
2189
1975
1703
1500
1417
1477
1646
1808
1854
1796
1729
1731
1829
2011
2239
2395
2315
1992
1648
1523
1616
1664
1468
1135
956
1092
1407
1647
1746
1829
2020
2249
2307
2079
1697
1395
1251
1064
567
-223
-944
-1162
-757
-2
752
1409
2149
3162
4416
5645
6545
6944
6833
6364
5787
5289
4875
4378
3680
2879
2225
1878
1732
1541
1179
726
334
29
-280
-605
-806
-751
-520
-357
-412
-589
-683
-637
-587
-652
-779
-837
-785
-695
-607
-521
-477
-554
-746
-915
-970
-1043
-1326
-1760
-1995
-1771
-1285
-1029
-1244
-1642
-1739
-1414
-1040
-1046
-1452
-1876
-1967
-1741
-1501
-1484
-1645
-1778
-1761
-1670
-1640
-1709
-1817
-1917
-2029
-2165
-2292
-2368
-2402
-2433
-2469
-2492
-2505
-2566
-2679
-2761
-2755
-2768
-2962
-3299
-3513
-3402
-3115
-3000
-3141
-3236
-3000
-2587
-2453
-2748
-3060
-2892
-2298
-1854
-1959
-2343
-2382
-1841
-1118
-750
-827
-976
-873
-570
-327
-272
-307
-327
-353
-420
-456
-366
-176
-19
21
-29
-103
-161
-162
-40
193
350
196
-263
-697
-760
-465
-167
-146
-304
-339
-144
62
8
-274
-496
-446
-204
-13
30
66
261
589
840
872
747
625
578
566
555
620
858
1229
1561
1712
1688
1581
1433
1218
939
646
401
260
281
476
789
1098
1282
1307
1186
914
430
-196
-654
-587
37
805
1297
1601
2295
3780
5602
6676
6311
4988
3942
3918
4435
4392
3328
1958
1394
1991
3051
3616
3352
2629
1964
1525
1199
847
426
-79
-624
-1008
-981
-519
54
358
311
168
197
330
282
-96
-592
-873
-852
-724
-720
-876
-1064
-1173
-1195
-1157
-1041
-840
-647
-586
-666
-749
-699
-571
-552
-752
-1035
-1175
-1085
-887
-781
-810
-838
-725
-523
-422
-570
-895
-1149
-1184
-1091
-1098
-1303
-1546
-1591
-1356
-994
-721
-653
-758
-900
-928
-797
-643
-669
-886
-1059
-932
-569
-306
-360
-564
-598
-401
-212
-214
-313
-281
-93
57
15
-121
-126
116
511
831
901
727
543
670
1207
1897
2302
2238
1990
2018
2456
2993
3256
3164
2898
2631
2400
2267
2354
2686
3004
2978
2623
2344
2475
2848
2975
2661
2212
2042
2166
2270
2202
2183
2455
2888
3088
2879
2525
2409
2597
2830
2846
2654
2467
2450
2594
2744
2767
2633
2471
2441
2552
2634
2520
2255
2038
1968
1919
1705
1355
1092
1069
1180
1220
1203
1312
1596
1840
1787
1446
1086
879
720
432
100
30
457
1307
2290
3167
3905
4614
5352
6003
6299
6034
5310
4505
3945
3612
3224
2590
1829
1227
943
900
899
736
282
-384
-932
-990
-561
-99
-85
-483
-755
-518
1
231
-92
-697
-1123
-1209
-1131
-1095
-1120
-1110
-1027
-924
-884
-965
-1150
-1366
-1511
-1540
-1524
-1558
-1651
-1714
-1672
-1565
-1491
-1530
-1679
-1871
-2032
-2106
-2114
-2128
-2211
-2354
-2491
-2599
-2722
-2881
-3014
-3045
-3000
-2999
-3068
-3075
-2903
-2651
-2577
-2788
-3112
-3319
-3388
-3460
-3571
-3576
-3408
-3238
-3303
-3585
-3790
-3722
-3528
-3528
-3805
-4114
-4170
-3965
-3728
-3626
-3602
-3522
-3365
-3213
-3084
-2882
-2550
-2241
-2220
-2549
-2925
-2941
-2523
-2048
-1945
-2236
-2499
-2349
-1860
-1451
-1394
-1545
-1563
-1328
-1056
-988
-1104
-1192
-1104
-916
-808
-871
-1043
-1189
-1220
-1155
-1094
-1146
-1317
-1480
-1475
-1266
-1002
-882
-964
-1127
-1230
-1277
-1352
-1442
-1439
-1305
-1193
-1324
-1684
-1967
-1856
-1380
-906
-766
-922
-1036
-882
-576
-374
-377
-464
-521
-573
-701
-880
-987
-939
-768
-580
-539
-788
-1279
-1671
-1558
-956
-456
-665
-1492
-2111
-1806
-753
212
513
406
583
1367
2465
3381
3873
4004
3897
3588
3108
2529
1904
1232
539
-61
-438
-588
-649
-771
-992
-1227
-1391
-1495
-1650
-1945
-2337
-2665
-2791
-2742
-2677
-2689
-2725
-2669
-2538
-2445
-2447
-2468
-2414
-2312
-2301
-2408
-2495
-2429
-2269
-2223
-2390
-2635
-2747
-2690
-2619
-2676
-2808
-2853
-2768
-2684
-2732
-2883
-2994
-2987
-2946
-2990
-3123
-3228
-3237
-3224
-3275
-3376
-3444
-3445
-3463
-3562
-3700
-3785
-3798
-3820
-3939
-4095
-4172
-4132
-4050
-4004
-3981
-3919
-3832
-3815
-3912
-4044
-4090
-4039
-4024
-4155
-4341
-4366
-4107
-3682
-3335
-3169
-3061
-2848
-2532
-2252
-2097
-2054
-2071
-2144
-2271
-2355
-2270
-2040
-1854
-1841
-1872
-1692
-1239
-734
-449
-390
-334
-139
87
160
53
-73
-102
-92
-168
-338
-482
-519
-478
-440
-427
-411
-381
-352
-314
-231
-114
-38
-52
-117
-156
-167
-211
-326
-454
-507
-482
-443
-393
-257
-5
265
415
439
459
579
741
824
812
787
785
711
475
174
53
238
572
744
630
436
428
605
656
324
-285
-832
-1146
-1397
-1805
-2265
-2383
-1920
-1094
-336
189
732
1611
2804
3948
4698
5004
5059
5034
4918
4616
4091
3420
2702
1968
1184
383
-268
-592
-639
-693
-994
-1460
-1756
-1704
-1517
-1541
-1838
-2097
-2030
-1729
-1531
-1596
-1747
-1735
-1546
-1348
-1229
-1081
-788
-417
-174
-197
-464
-870
-1318
-1723
-2055
-2358
-2706
-3073
-3278
-3147
-2760
-2424
-2353
-2443
-2463
-2393
-2439
-2724
-3082
-3239
-3173
-3106
-3181
-3231
-3017
-2601
-2385
-2691
-3363
-3845
-3748
-3232
-2851
-2935
-3183
-2990
-2147
-1158
-780
-1248
-2034
-2411
-2217
-1944
-2122
-2754
-3347
-3433
-3059
-2687
-2755
-3239
-3646
-3546
-3056
-2805
-3235
-3958
-4057
-3078
-1629
-768
-951
-1651
-2021
-1742
-1129
-541
-81
283
527
590
519
376
72
-528
-1399
-2308
-2991
-3306
-3177
-2566
-1552
-429
413
824
983
1156
1397
1468
1126
388
-392
-762
-559
-50
301
281
101
85
232
191
-268
-912
-1283
-1168
-779
-500
-476
-573
-597
-495
-381
-406
-590
-806
-890
-830
-758
-813
-952
-983
-796
-504
-306
-242
-172
-9
128
60
-221
-513
-657
-718
-897
-1263
-1650
-1846
-1834
-1793
-1851
-1924
-1802
-1401
-825
-206
460
1273
2225
3121
3740
4023
4092
4075
3976
3667
3071
2268
1468
875
516
203
-266
-865
-1340
-1488
-1412
-1387
-1546
-1753
-1824
-1744
-1638
-1549
-1430
-1333
-1439
-1817
-2232
-2394
-2347
-2444
-2893
-3413
-3541
-3214
-2851
-2852
-3151
-3358
-3260
-3051
-3032
-3255
-3526
-3678
-3762
-3910
-4128
-4301
-4325
-4237
-4169
-4206
-4325
-4458
-4594
-4785
-5038
-5244
-5283
-5161
-4988
-4852
-4741
-4628
-4550
-4572
-4646
-4682
-4694
-4836
-5172
-5508
-5521
-5149
-4702
-4549
-4715
-4906
-4866
-4648
-4505
-4579
-4777
-4911
-4880
-4722
-4508
-4275
-4046
-3858
-3744
-3679
-3565
-3314
-2945
-2575
-2309
-2146
-1996
-1808
-1620
-1526
-1525
-1513
-1388
-1165
-939
-771
-629
-488
-369
-296
-227
-73
159
332
321
192
158
330
565
595
335
-18
-194
-120
47
130
119
119
185
277
346
407
485
561
613
643
684
725
756
843
1072
1397
1656
1709
1635
1646
1862
2202
2485
2603
2539
2334
2070
1883
1878
1981
1960
1687
1333
1210
1439
1819
2049
2013
1821
1637
1523
1441
1333
1145
842
481
265
423
1037
1940
2840
3618
4485
5792
7623
9545
10858
11165
10715
10102
9638
9084
8009
6370
4630
3335
2686
2502
2470
2396
2263
2146
2096
2087
2010
1759
1352
933
666
566
528
485
511
719
1098
1467
1631
1561
1397
1286
1237
1148
963
790
811
1046
1283
1314
1191
1199
1510
1903
1987
1651
1212
1085
1263
1344
1001
371
-106
-193
-77
-106
-380
-696
-811
-697
-528
-487
-598
-738
-756
-600
-367
-248
-352
-593
-754
-720
-606
-647
-936
-1346
-1681
-1868
-1979
-2096
-2191
-2204
-2146
-2093
-2090
-2072
-1969
-1810
-1699
-1684
-1666
-1492
-1107
-606
-148
173
390
578
773
943
1035
1059
1094
1206
1349
1410
1351
1310
1466
1813
2106
2097
1810
1534
1528
1756
1966
1957
1756
1538
1449
1480
1532
1568
1629
1791
2027
2171
2104
1911
1810
1875
1944
1823
1591
1541
1824
2241
2500
2554
2563
2574
2390
1892
1313
1031
1141
1371
1460
1456
1552
1728
1775
1616
1442
1415
1390
1082
513
83
124
537
927
1078
1128
1235
1295
1108
716
351
113
-146
-503
-687
-306
642
1646
2199
2344
2605
3388
4551
5585
6123
6180
6009
5823
5690
5559
5303
4774
3935
2979
2255
1989
2050
2052
1740
1220
817
695
720
638
352
-4
-275
-437
-548
-585
-482
-275
-89
-12
42
218
497
659
505
112
-220
-274
-172
-316
-968
-1959
-2803
-3123
-2963
-2653
-2429
-2262
-2027
-1709
-1366
-1031
-736
-615
-832
-1330
-1797
-1967
-1904
-1868
-1947
-1949
-1745
-1500
-1496
-1777
-2078
-2183
-2195
-2358
-2700
-2976
-2968
-2746
-2544
-2503
-2540
-2519
-2433
-2387
-2454
-2590
-2709
-2735
-2630
-2385
-2027
-1676
-1506
-1561
-1672
-1613
-1382
-1237
-1400
-1755
-1918
-1653
-1143
-780
-737
-833
-776
-457
-40
286
469
584
697
771
724
491
120
-263
-542
-703
-779
-755
-560
-171
262
490
464
400
537
838
959
620
2
-379
-178
420
863
775
345
100
327
753
863
496
-3
-165
39
258
254
189
330
635
801
689
529
596
869
1093
1145
1135
1157
1066
744
365
282
579
913
876
499
224
343
674
790
569
282
165
87
-233
-752
-1048
-808
-262
63
14
44
722
2071
3541
4587
5176
5613
6067
6388
6379
6071
5622
5094
4405
3546
2720
2188
1995
1919
1691
1273
906
839
1069
1300
1239
895
549
425
442
361
101
-173
-283
-274
-355
-579
-719
-531
-116
134
-18
-354
-412
-30
444
531
133
-361
-519
-330
-157
-305
-713
-1051
-1082
-889
-743
-827
-1074
-1263
-1264
-1180
-1260
-1615
-2122
-2567
-2878
-3166
-3533
-3922
-4188
-4265
-4185
-3954
-3519
-2920
-2381
-2133
-2110
-2029
-1727
-1411
-1436
-1854
-2335
-2507
-2329
-2055
-1908
-1856
-1762
-1628
-1566
-1604
-1615
-1489
-1307
-1251
-1362
-1431
-1231
-782
-358
-188
-241
-290
-201
-64
-18
-39
27
238
458
538
524
596
812
981
862
461
45
-131
-42
155
342
532
769
1028
1254
1439
1605
1714
1653
1363
959
668
620
743
866
904
918
1007
1163
1277
1255
1107
893
668
463
333
341
500
718
878
933
925
895
800
581
282
25
-114
-171
-238
-350
-460
-523
-550
-582
-622
-602
-454
-231
-118
-272
-649
-1019
-1200
-1259
-1437
-1857
-2308
-2415
-2003
-1268
-537
97
867
2041
3573
5055
6008
6243
5943
5436
4897
4260
3394
2315
1203
268
-388
-792
-1021
-1164
-1298
-1464
-1667
-1903
-2170
-2464
-2757
-2958
-3008
-2941
-2860
-2819
-2745
-2549
-2248
-1994
-1954
-2166
-2502
-2769
-2861
-2827
-2798
-2835
-2865
-2828
-2808
-2945
-3236
-3489
-3528
-3438
-3468
-3722
-4028
-4167
-4122
-4045
-4021
-3994
-3952
-4042
-4370
-4764
-4919
-4810
-4789
-5162
-5733
-5974
-5681
-5282
-5369
-5988
-6582
-6694
-6494
-6499
-6851
-7125
-6880
-6236
-5698
-5521
-5519
-5437
-5314
-5381
-5638
-5800
-5695
-5498
-5472
-5591
-5570
-5252
-4837
-4644
-4734
-4893
-4940
-4921
-4958
-5032
-4966
-4655
-4232
-3955
-3917
-3927
-3717
-3281
-2922
-2921
-3127
-3105
-2666
-2138
-1958
-2102
-2133
-1837
-1576
-1745
-2070
-1813
-801
145
97
-778
-1308
-722
308
422
-797
-2311
-2816
-2185
-1436
-1449
-2026
-2318
-1893
-1101
-502
-254
-137
18
124
67
-49
-25
178
402
452
323
185
201
361
519
559
508
473
492
511
447
326
310
506
829
1064
1069
921
789
707
537
179
-273
-639
-832
-883
-804
-504
82
853
1676
2562
3651
4956
6213
7062
7385
7331
7077
6667
6104
5486
4891
4241
3411
2503
1838
1631
1676
1494
869
84
-398
-427
-279
-312
-620
-1020
-1298
-1400
-1382
-1291
-1183
-1151
-1295
-1590
-1805
-1711
-1341
-982
-899
-1063
-1227
-1232
-1145
-1088
-1072
-1026
-966
-1007
-1150
-1237
-1154
-1021
-1078
-1379
-1683
-1737
-1582
-1479
-1554
-1637
-1518
-1251
-1115
-1283
-1605
-1776
-1705
-1573
-1589
-1752
-1871
-1822
-1690
-1628
-1686
-1780
-1840
-1894
-2013
-2197
-2341
-2333
-2161
-1917
-1693
-1536
-1440
-1390
-1414
-1556
-1795
-2026
-2165
-2219
-2274
-2366
-2389
-2191
-1768
-1306
-1022
-947
-945
-879
-732
-584
-499
-486
-502
-473
-341
-118
84
154
112
118
307
600
788
777
709
793
1069
1350
1430
1285
1081
992
1043
1128
1140
1071
1001
994
1029
1045
1009
957
930
931
944
960
989
1029
1070
1118
1202
1317
1404
1416
1392
1417
1502
1549
1472
1327
1279
1391
1527
1506
1321
1169
1262
1628
2083
2411
2519
2443
2301
2231
2284
2329
2115
1529
762
195
24
47
-89
-471
-791
-660
-1
929
1834
2638
3489
4515
5671
6728
7396
7498
7080
6405
5767
5259
4699
3885
2887
2051
1681
1713
1719
1307
512
-220
-482
-315
-132
-243
-510
-493
16
719
1119
1015
642
312
100
-106
-310
-365
-199
1
-5
-178
-246
-94
42
-160
-686
-1185
-1387
-1330
-1182
-973
-647
-331
-313
-677
-1123
-1251
-1028
-848
-1062
-1558
-1889
-1757
-1323
-1039
-1183
-1605
-1930
-1943
-1780
-1739
-1894
-2016
-1846
-1413
-1013
-889
-1033
-1290
-1536
-1738
-1857
-1867
-1850
-1947
-2155
-2266
-2079
-1681
-1392
-1409
-1597
-1664
-1494
-1222
-1019
-932
-906
-867
-788
-668
-524
-412
-364
-330
-249
-145
-119
-195
-222
-41
270
446
355
193
244
458
445
-58
-786
-1165
-930
-399
-82
-149
-310
-216
162
547
671
508
247
109
177
351
442
386
321
436
743
993
915
533
142
-12
54
118
29
-150
-243
-148
94
340
441
324
61
-163
-219
-136
-60
-82
-139
-154
-155
-230
-372
-461
-421
-357
-424
-599
-693
-606
-487
-587
-963
-1427
-1796
-2051
-2273
-2419
-2332
-1968
-1468
-965
-389
458
1647
2975
4107
4834
5150
5165
4984
4680
4267
3687
2908
2023
1245
740
472
230
-119
-499
-748
-842
-950
-1229
-1638
-1992
-2169
-2224
-2323
-2539
-2769
-2849
-2743
-2602
-2594
-2711
-2784
-2708
-2590
-2625
-2823
-2967
-2869
-2587
-2369
-2373
-2526
-2674
-2779
-2875
-2916
-2802
-2598
-2557
-2814
-3157
-3211
-2917
-2668
-2886
-3503
-4013
-4058
-3821
-3757
-3981
-4157
-3960
-3505
-3192
-3208
-3356
-3386
-3331
-3416
-3718
-4035
-4167
-4149
-4151
-4225
-4254
-4156
-4024
-4019
-4152
-4286
-4307
-4233
-4163
-4158
-4175
-4130
-4003
-3852
-3762
-3737
-3677
-3516
-3314
-3194
-3164
-3078
-2808
-2423
-2130
-2013
-1946
-1793
-1629
-1649
-1861
-1999
-1841
-1473
-1168
-1057
-976
-702
-262
103
254
276
304
323
223
2
-169
-167
-61
-33
-150
-295
-334
-290
-283
-364
-467
-514
-503
-479
-435
-306
-75
209
477
696
853
903
814
642
527
554
670
740
690
587
554
636
787
936
1028
1030
925
748
594
548
608
695
749
783
827
861
820
674
472
276
75
-178
-470
-652
-548
-102
582
1331
2071
2872
3846
4975
6039
6736
6883
6551
5992
5436
4938
4381
3641
2743
1892
1333
1123
1084
971
673
270
-92
-350
-529
-640
-667
-634
-627
-709
-793
-724
-465
-187
-96
-224
-423
-533
-524
-461
-367
-215
-40
35
-66
-255
-345
-283
-218
-320
-537
-621
-456
-240
-270
-581
-903
-975
-868
-881
-1157
-1528
-1737
-1729
-1660
-1694
-1851
-2060
-2251
-2392
-2461
-2493
-2579
-2778
-3036
-3229
-3280
-3207
-3096
-3031
-3086
-3304
-3617
-3860
-3938
-3971
-4163
-4523
-4778
-4662
-4231
-3837
-3746
-3854
-3852
-3587
-3218
-3017
-3061
-3201
-3239
-3107
-2882
-2669
-2514
-2399
-2290
-2178
-2076
-1982
-1890
-1811
-1765
-1762
-1779
-1761
-1681
-1577
-1520
-1545
-1627
-1692
-1675
-1566
-1417
-1299
-1253
-1267
-1299
-1323
-1350
-1396
-1447
-1471
-1455
-1435
-1450
-1491
-1498
-1416
-1273
-1169
-1171
-1229
-1230
-1126
-994
-938
-973
-1024
-1012
-937
-852
-798
-779
-770
-732
-642
-519
-439
-471
-579
-650
-625
-576
-630
-792
-923
-912
-806
-726
-712
-721
-757
-881
-1103
-1335
-1504
-1692
-2023
-2429
-2627
-2406
-1872
-1325
-896
-410
364
1417
2477
3271
3714
3865
3797
3547
3145
2622
2011
1352
722
187
-259
-654
-971
-1135
-1141
-1136
-1310
-1693
-2088
-2287
-2301
-2321
-2483
-2727
-2900
-2938
-2907
-2884
-2876
-2856
-2860
-2952
-3138
-3332
-3435
-3436
-3409
-3420
-3499
-3618
-3706
-3678
-3498
-3270
-3195
-3388
-3744
-4017
-4064
-3987
-4015
-4267
-4643
-4937
-4999
-4827
-4534
-4259
-4118
-4131
-4185
-4107
-3849
-3589
-3578
-3872
-4276
-4537
-4595
-4614
-4723
-4875
-4916
-4794
-4637
-4562
-4515
-4343
-4039
-3797
-3789
-3933
-3987
-3862
-3749
-3867
-4171
-4380
-4347
-4245
-4355
-4688
-4930
-4796
-4336
-3846
-3550
-3390
-3164
-2774
-2315
-1983
-1888
-1934
-1942
-1829
-1671
-1630
-1754
-1881
-1785
-1418
-979
-710
-678
-704
-564
-220
145
282
97
-235
-427
-350
-170
-164
-403
-663
-705
-560
-453
-508
-617
-605
-495
-467
-603
-776
-814
-706
-585
-518
-444
-290
-113
-26
-49
-61
49
236
323
225
50
-27
39
91
-42
-314
-493
-385
-62
212
266
181
170
350
623
769
627
220
-271
-622
-738
-754
-895
-1239
-1576
-1595
-1195
-573
-13
424
901
1580
2421
3240
3849
4141
4109
3835
3471
3150
2902
2622
2172
1540
900
485
381
407
260
-210
-826
-1247
-1321
-1269
-1437
-1874
-2259
-2279
-1993
-1765
-1836
-2074
-2190
-2082
-1919
-1912
-2099
-2349
-2518
-2549
-2510
-2515
-2649
-2908
-3199
-3401
-3470
-3466
-3469
-3510
-3559
-3576
-3564
-3575
-3672
-3858
-4048
-4146
-4140
-4134
-4238
-4449
-4632
-4650
-4495
-4300
-4203
-4227
-4296
-4317
-4292
-4298
-4396
-4560
-4716
-4812
-4849
-4815
-4699
-4536
-4440
-4495
-4640
-4699
-4588
-4438
-4441
-4635
-4853
-4938
-4917
-4910
-4942
-4929
-4814
-4662
-4563
-4498
-4385
-4231
-4125
-4106
-4069
-3900
-3643
-3460
-3445
-3510
-3472
-3258
-2988
-2875
-3007
-3241
-3318
-3089
-2693
-2447
-2521
-2736
-2773
-2535
-2256
-2207
-2345
-2408
-2261
-2048
-1951
-1927
-1803
-1556
-1378
-1407
-1566
-1694
-1768
-1867
-1956
-1869
-1576
-1298
-1258
-1364
-1291
-923
-549
-509
-775
-989
-907
-661
-528
-586
-661
-602
-510
-540
-672
-741
-669
-603
-717
-935
-979
-715
-339
-161
-285
-544
-750
-920
-1184
-1540
-1828
-1949
-2011
-2139
-2232
-1994
-1263
-226
743
1484
2179
3090
4204
5179
5651
5534
5054
4508
4021
3540
2964
2271
1558
938
461
103
-190
-467
-741
-1037
-1387
-1773
-2122
-2371
-2518
-2613
-2691
-2727
-2673
-2540
-2415
-2380
-2442
-2542
-2634
-2712
-2781
-2841
-2887
-2936
-2992
-3020
-3014
-3026
-3100
-3178
-3155
-3009
-2878
-2909
-3069
-3182
-3142
-3033
-2986
-3004
-2975
-2860
-2762
-2782
-2865
-2890
-2841
-2852
-3016
-3244
-3361
-3311
-3202
-3172
-3223
-3237
-3107
-2843
-2562
-2397
-2417
-2580
-2799
-3022
-3274
-3603
-3986
-4305
-4454
-4426
-4284
-4096
-3882
-3630
-3333
-3035
-2816
-2705
-2634
-2497
-2290
-2137
-2116
-2109
-1916
-1524
-1156
-993
-919
-696
-317
-79
-186
-449
-490
-218
80
130
-10
-65
106
382
602
748
871
971
1006
983
951
914
863
821
843
916
957
945
979
1130
1297
1311
1170
1051
1097
1217
1251
1203
1236
1403
1551
1515
1367
1354
1562
1782
1788
1636
1597
1794
2037
2061
1851
1642
1593
1623
1546
1347
1175
1136
1182
1214
1223
1291
1440
1554
1502
1269
971
726
546
348
60
-264
-435
-274
245
961
1681
2384
3239
4383
5678
6718
7161
7028
6658
6349
6055
5503
4569
3517
2755
2445
2345
2134
1749
1389
1220
1146
945
555
159
-69
-145
-215
-335
-417
-372
-240
-157
-204
-328
-434
-495
-546
-603
-652
-676
-680
-670
-657
-656
-698
-793
-910
-989
-994
-930
-832
-742
-709
-766
-889
-1001
-1039
-1036
-1086
-1225
-1380
-1441
-1392
-1339
-1391
-1536
-1673
-1752
-1835
-2009
-2258
-2451
-2485
-2411
-2371
-2433
-2501
-2432
-2230
-2052
-2033
-2145
-2242
-2247
-2218
-2240
-2289
-2259
-2110
-1936
-1829
-1775
-1677
-1499
-1301
-1147
-1026
-879
-708
-587
-545
-503
-352
-96
146
280
350
490
755
1030
1180
1212
1256
1393
1557
1629
1606
1604
1712
1870
1956
1943
1925
1986
2094
2150
2127
2093
2126
2225
2317
2335
2274
2195
2160
2207
2314
2398
2380
2256
2139
2157
2312
2449
2396
2152
1918
1901
2088
2279
2295
2158
2055
2097
2203
2215
2065
1827
1594
1391
1193
981
782
664
688
885
1210
1539
1717
1632
1280
775
276
-123
-487
-989
-1681
-2327
-2508
-2019
-1084
-158
541
1208
2134
3321
4446
5182
5442
5324
4936
4375
3815
3434
3180
2765
1992
1066
434
277
290
64
-439
-882
-994
-869
-769
-788
-836
-881
-1031
-1287
-1385
-1053
-414
64
64
-263
-477
-352
-71
58
-36
-151
-88
126
266
166
-68
-174
-19
212
171
-259
-802
-1054
-912
-682
-702
-980
-1239
-1283
-1171
-1064
-1027
-1026
-1070
-1204
-1398
-1527
-1484
-1304
-1163
-1224
-1491
-1846
-2151
-2339
-2433
-2494
-2519
-2434
-2216
-1957
-1801
-1803
-1853
-1817
-1660
-1495
-1474
-1633
-1850
-1956
-1860
-1649
-1503
-1475
-1407
-1158
-866
-852
-1177
-1439
-1191
-588
-316
-803
-1581
-1700
-813
394
961
701
305
484
1220
1917
2122
1913
1644
1511
1466
1424
1407
1459
1538
1553
1456
1303
1197
1182
1212
1213
1149
1046
962
916
881
812
699
553
386
210
48
-74
-156
-194
-167
-53
120
274
347
388
500
667
745
624
412
338
478
659
690
607
612
779
934
908
757
674
726
790
757
667
580
419
82
-356
-684
-818
-897
-1040
-1090
-770
-51
782
1476
2123
2988
4123
5232
5957
6206
6148
5954
5640
5144
4450
3624
2781
2038
1488
1139
904
655
348
41
-182
-331
-489
-711
-963
-1157
-1254
-1308
-1393
-1542
-1739
-1961
-2188
-2379
-2479
-2490
-2493
-2559
-2614
-2473
-2064
-1581
-1338
-1466
-1770
-1963
-1988
-2039
-2261
-2542
-2648
-2543
-2445
-2545
-2752
-2816
-2653
-2476
-2534
-2805
-3028
-3004
-2811
-2686
-2743
-2888
-2986
-3016
-3080
-3243
-3456
-3634
-3726
-3739
-3710
-3690
-3715
-3760
-3747
-3628
-3469
-3410
-3503
-3634
-3630
-3455
-3255
-3190
-3249
-3273
-3137
-2881
-2647
-2525
-2485
-2444
-2357
-2242
-2123
-1997
-1833
-1622
-1401
-1212
-1061
-904
-696
-462
-259
-115
2
133
267
359
412
490
642
812
888
839
774
814
966
1111
1140
1079
1057
1164
1345
1461
1454
1417
1477
1622
1695
1579
1378
1310
1429
1549
1458
1212
1094
1272
1579
1712
1616
1539
1709
2031
2205
2097
1902
1888
2084
2273
2279
2159
2089
2135
2211
2227
2208
2220
2243
2196
2061
1925
1921
2088
2288
2304
2056
1734
1663
1967
2368
2427
2018
1523
1492
2088
2960
3633
3994
4324
4936
5848
6789
7443
7628
7360
6819
6249
5787
5384
4883
4236
3602
3185
3022
2975
2900
2773
2630
2454
2198
1915
1748
1771
1873
1871
1715
1545
1535
1704
1901
1964
1886
1785
1770
1840
1928
1987
2046
2156
2300
2391
2364
2267
2216
2266
2330
2268
2066
1867
1810
1853
1805
1558
1218
996
966
990
891
663
465
439
549
624
558
411
316
318
318
205
-6
-190
-276
-332
-461
-659
-801
-785
-647
-531
-533
-628
-723
-767
-761
-739
-729
-731
-738
-720
-648
-514
-349
-206
-130
-115
-95
25
282
588
792
820
776
856
1137
1490
1704
1698
1591
1560
1655
1797
1913
2024
2184
2363
2457
2405
2282
2223
2274
2323
2231
1992
1741
1628
1691
1839
1950
1970
1929
1897
1919
1977
2014
2001
1963
1934
1925
1921
1913
1934
2014
2151
2315
2481
2628
2727
2755
2736
2742
2808
2878
2865
2748
2596
2493
2457
2459
2487
2543
2600
2602
2521
2424
2438
2600
2764
2723
2434
2086
1915
1937
1912
1621
1152
844
966
1462
2065
2610
3175
3933
4913
5938
6748
7180
7228
7009
6667
6275
5826
5307
4759
4251
3813
3422
3045
2707
2422
2128
1741
1264
821
547
451
429
400
376
402
469
519
508
444
358
246
60
-227
-540
-733
-712
-554
-464
-584
-828
-960
-853
-623
-486
-529
-644
-688
-632
-579
-609
-737
-901
-1020
-1056
-1035
-1032
-1105
-1225
-1305
-1307
-1319
-1452
-1685
-1850
-1817
-1665
-1598
-1714
-1902
-2004
-2007
-2013
-2085
-2178
-2241
-2303
-2408
-2491
-2446
-2279
-2153
-2192
-2308
-2281
-2037
-1738
-1606
-1670
-1746
-1651
-1382
-1093
-920
-874
-871
-814
-662
-449
-249
-105
23
205
444
650
764
831
931
1037
1036
903
786
845
1041
1165
1082
918
919
1173
1510
1684
1630
1511
1538
1748
1982
2038
1856
1587
1450
1520
1680
1769
1750
1711
1727
1776
1808
1836
1911
2018
2063
1996
1897
1881
1959
2050
2096
2123
2186
2276
2343
2341
2272
2167
2054
1975
1960
1991
2017
2030
2106
2313
2609
2887
3076
3168
3174
3078
2877
2632
2394
2133
1773
1357
1114
1254
1735
2289
2736
3211
4023
5257
6570
7463
7733
7624
7540
7616
7628
7280
6536
5665
4993
4624
4391
4064
3553
2951
2398
1959
1607
1305
1085
964
878
742
575
495
564
665
594
291
-75
-302
-378
-459
-635
-799
-808
-696
-667
-847
-1129
-1309
-1344
-1395
-1613
-1925
-2095
-2001
-1797
-1749
-1938
-2178
-2235
-2096
-1977
-2072
-2316
-2491
-2485
-2410
-2436
-2580
-2699
-2712
-2701
-2780
-2914
-2970
-2917
-2915
-3116
-3435
-3613
-3542
-3414
-3489
-3769
-3972
-3902
-3666
-3534
-3607
-3709
-3649
-3464
-3339
-3343
-3368
-3307
-3202
-3164
-3197
-3141
-2901
-2580
-2367
-2316
-2303
-2193
-2011
-1883
-1868
-1870
-1790
-1644
-1535
-1486
-1370
-1068
-655
-349
-292
-404
-479
-412
-265
-168
-141
-75
96
305
434
459
479
577
681
634
382
111
39
185
346
354
299
393
647
808
